ECG
0.2230769230769231
0.23846153846153847
0.24615384615384617
0.24615384615384617
0.25384615384615383
0.2692307692307692
0.27692307692307694
0.27692307692307694
0.2846153846153846
0.3
0.3076923076923077
0.3230769230769231
0.3230769230769231
0.3230769230769231
0.3384615384615385
0.3384615384615385
0.3384615384615385
0.3384615384615385
0.34615384615384615
0.33076923076923076
0.3230769230769231
0.3230769230769231
0.3153846153846154
0.3076923076923077
0.2923076923076923
0.3
0.2923076923076923
0.2846153846153846
0.27692307692307694
0.2692307692307692
0.26153846153846155
0.26153846153846155
0.24615384615384617
0.24615384615384617
0.24615384615384617
0.24615384615384617
0.24615384615384617
0.24615384615384617
0.23846153846153847
0.2230769230769231
0.2230769230769231
0.2230769230769231
0.2076923076923077
0.2153846153846154
0.2230769230769231
0.2076923076923077
0.2153846153846154
0.2230769230769231
0.2153846153846154
0.2076923076923077
0.2076923076923077
0.2153846153846154
0.2153846153846154
0.2153846153846154
0.2076923076923077
0.2
0.2076923076923077
0.2076923076923077
0.2
0.2076923076923077
0.2076923076923077
0.19230769230769232
0.19230769230769232
0.19230769230769232
0.18461538461538463
0.18461538461538463
0.19230769230769232
0.17692307692307693
0.17692307692307693
0.17692307692307693
0.17692307692307693
0.17692307692307693
0.16923076923076924
0.16923076923076924
0.16923076923076924
0.16153846153846155
0.15384615384615385
0.15384615384615385
0.15384615384615385
0.14615384615384616
0.12307692307692308
0.13076923076923078
0.12307692307692308
0.13076923076923078
0.13076923076923078
0.12307692307692308
0.12307692307692308
0.12307692307692308
0.13076923076923078
0.13076923076923078
0.13076923076923078
0.11538461538461539
0.1
0.1
0.11538461538461539
0.11538461538461539
0.12307692307692308
0.13846153846153847
0.14615384615384616
0.14615384615384616
0.16153846153846155
0.18461538461538463
0.18461538461538463
0.18461538461538463
0.18461538461538463
0.19230769230769232
0.2076923076923077
0.2153846153846154
0.2230769230769231
0.23846153846153847
0.26153846153846155
0.2846153846153846
0.3153846153846154
0.33076923076923076
0.35384615384615387
0.4
0.4076923076923077
0.4
0.38461538461538464
0.3769230769230769
0.35384615384615387
0.35384615384615387
0.35384615384615387
0.3384615384615385
0.3230769230769231
0.3230769230769231
0.3076923076923077
0.3
0.27692307692307694
0.2692307692307692
0.27692307692307694
0.2692307692307692
0.25384615384615383
0.25384615384615383
0.24615384615384617
0.23076923076923078
0.2230769230769231
0.2230769230769231
0.2153846153846154
0.2
0.19230769230769232
0.18461538461538463
0.17692307692307693
0.16153846153846155
0.15384615384615385
0.14615384615384616
0.14615384615384616
0.13846153846153847
0.14615384615384616
0.13846153846153847
0.13846153846153847
0.13076923076923078
0.13846153846153847
0.13076923076923078
0.12307692307692308
0.13076923076923078
0.13846153846153847
0.13846153846153847
0.13076923076923078
0.12307692307692308
0.13076923076923078
0.14615384615384616
0.13076923076923078
0.11538461538461539
0.12307692307692308
0.12307692307692308
0.12307692307692308
0.12307692307692308
0.12307692307692308
0.13076923076923078
0.13076923076923078
0.11538461538461539
0.12307692307692308
0.13076923076923078
0.13846153846153847
0.13076923076923078
0.12307692307692308
0.12307692307692308
0.11538461538461539
0.1
0.11538461538461539
0.1076923076923077
0.11538461538461539
0.1076923076923077
0.11538461538461539
0.12307692307692308
0.12307692307692308
0.13846153846153847
0.11538461538461539
0.1076923076923077
0.1076923076923077
0.11538461538461539
0.11538461538461539
0.1076923076923077
0.1076923076923077
0.1076923076923077
0.1076923076923077
0.1
0.09230769230769231
0.1
0.1
0.09230769230769231
0.09230769230769231
0.1
0.1
0.09230769230769231
0.1
0.09230769230769231
0.1
0.1076923076923077
0.1076923076923077
0.09230769230769231
0.09230769230769231
0.08461538461538462
0.08461538461538462
0.09230769230769231
0.1
0.09230769230769231
0.09230769230769231
0.08461538461538462
0.09230769230769231
0.09230769230769231
0.1
0.09230769230769231
0.08461538461538462
0.09230769230769231
0.09230769230769231
0.1
0.1
0.1
0.09230769230769231
0.08461538461538462
0.09230769230769231
0.09230769230769231
0.09230769230769231
0.08461538461538462
0.08461538461538462
0.08461538461538462
0.09230769230769231
0.09230769230769231
0.1
0.1
0.1
0.09230769230769231
0.1
0.1076923076923077
0.1076923076923077
0.1076923076923077
0.1
0.1
0.1076923076923077
0.08461538461538462
0.09230769230769231
0.1076923076923077
0.1
0.09230769230769231
0.1076923076923077
0.1
0.09230769230769231
0.1
0.1
0.1076923076923077
0.11538461538461539
0.12307692307692308
0.12307692307692308
0.11538461538461539
0.11538461538461539
0.11538461538461539
0.11538461538461539
0.12307692307692308
0.13076923076923078
0.13846153846153847
0.13076923076923078
0.13076923076923078
0.13076923076923078
0.13076923076923078
0.12307692307692308
0.13846153846153847
0.14615384615384616
0.14615384615384616
0.15384615384615385
0.16923076923076924
0.16923076923076924
0.16923076923076924
0.16923076923076924
0.16923076923076924
0.17692307692307693
0.16923076923076924
0.16923076923076924
0.17692307692307693
0.16923076923076924
0.16923076923076924
0.16923076923076924
0.17692307692307693
0.16923076923076924
0.16153846153846155
0.16923076923076924
0.17692307692307693
0.17692307692307693
0.18461538461538463
0.18461538461538463
0.19230769230769232
0.18461538461538463
0.18461538461538463
0.2
0.19230769230769232
0.18461538461538463
0.19230769230769232
0.18461538461538463
0.17692307692307693
0.18461538461538463
0.18461538461538463
0.18461538461538463
0.19230769230769232
0.19230769230769232
0.19230769230769232
0.2
0.2
0.2
0.19230769230769232
0.19230769230769232
0.18461538461538463
0.19230769230769232
0.19230769230769232
0.18461538461538463
0.19230769230769232
0.19230769230769232
0.18461538461538463
0.19230769230769232
0.19230769230769232
0.2076923076923077
0.2153846153846154
0.2076923076923077
0.2076923076923077
0.2153846153846154
0.2153846153846154
0.2
0.2
0.2076923076923077
0.2076923076923077
0.2153846153846154
0.23076923076923078
0.23076923076923078
0.2153846153846154
0.2153846153846154
0.2
0.2
0.2
0.2076923076923077
0.2153846153846154
0.2076923076923077
0.2076923076923077
0.2076923076923077
0.2076923076923077
0.2076923076923077
0.2076923076923077
0.2076923076923077
0.2153846153846154
0.2153846153846154
0.2153846153846154
0.2230769230769231
0.2230769230769231
0.2153846153846154
0.2076923076923077
0.2153846153846154
0.2153846153846154
0.2153846153846154
0.2076923076923077
0.19230769230769232
0.19230769230769232
0.2076923076923077
0.2076923076923077
0.2
0.19230769230769232
0.2
0.2
0.2076923076923077
0.2153846153846154
0.2153846153846154
0.2153846153846154
0.2230769230769231
0.2230769230769231
0.2153846153846154
0.2230769230769231
0.2153846153846154
0.2153846153846154
0.2076923076923077
0.2076923076923077
0.19230769230769232
0.2
0.2076923076923077
0.2
0.19230769230769232
0.2
0.2
0.2153846153846154
0.2153846153846154
0.2
0.2076923076923077
0.2153846153846154
0.2076923076923077
0.2076923076923077
0.2153846153846154
0.2230769230769231
0.2076923076923077
0.2
0.2076923076923077
0.2076923076923077
0.2
0.19230769230769232
0.2
0.2
0.2
0.2076923076923077
0.2153846153846154
0.2153846153846154
0.2076923076923077
0.2076923076923077
0.2076923076923077
0.2076923076923077
0.2076923076923077
0.2153846153846154
0.2076923076923077
0.2076923076923077
0.2076923076923077
0.2230769230769231
0.2153846153846154
0.2153846153846154
0.2153846153846154
0.2153846153846154
0.2153846153846154
0.2153846153846154
0.2230769230769231
0.2230769230769231
0.2153846153846154
0.2153846153846154
0.2153846153846154
0.2230769230769231
0.2153846153846154
0.2153846153846154
0.2230769230769231
0.2153846153846154
0.2076923076923077
0.2153846153846154
0.2153846153846154
0.2230769230769231
0.2153846153846154
0.2153846153846154
0.2230769230769231
0.2153846153846154
0.2076923076923077
0.2153846153846154
0.2230769230769231
0.2076923076923077
0.2153846153846154
0.23076923076923078
0.2230769230769231
0.2230769230769231
0.23076923076923078
0.2230769230769231
0.2230769230769231
0.23076923076923078
0.23076923076923078
0.24615384615384617
0.26153846153846155
0.27692307692307694
0.27692307692307694
0.2923076923076923
0.3076923076923077
0.3230769230769231
0.3230769230769231
0.3230769230769231
0.33076923076923076
0.36153846153846153
0.3769230769230769
0.36923076923076925
0.38461538461538464
0.4
0.4230769230769231
0.43846153846153846
0.45384615384615384
0.47692307692307695
0.5076923076923077
0.5153846153846153
0.5230769230769231
0.5230769230769231
0.5461538461538461
0.5615384615384615
0.5615384615384615
0.5769230769230769
0.5846153846153846
0.5923076923076923
0.6
0.6076923076923076
0.6076923076923076
0.6076923076923076
0.6307692307692307
0.6307692307692307
0.6307692307692307
0.6461538461538462
0.6615384615384615
0.6692307692307692
0.6692307692307692
0.6846153846153846
0.6846153846153846
0.6846153846153846
0.6846153846153846
0.676923076923077
0.6846153846153846
0.6846153846153846
0.6692307692307692
0.6692307692307692
0.6461538461538462
0.6384615384615384
0.6230769230769231
0.6153846153846154
0.6
0.5846153846153846
0.5615384615384615
0.5615384615384615
0.5538461538461539
0.5461538461538461
0.5384615384615384
0.5230769230769231
0.5
0.5
0.5076923076923077
0.49230769230769234
0.4846153846153846
0.47692307692307695
0.47692307692307695
0.47692307692307695
0.46923076923076923
0.47692307692307695
0.46923076923076923
0.45384615384615384
0.45384615384615384
0.4461538461538462
0.43846153846153846
0.4307692307692308
0.4230769230769231
0.4153846153846154
0.38461538461538464
0.35384615384615387
0.34615384615384615
0.33076923076923076
0.2923076923076923
0.2692307692307692
0.26153846153846155
0.25384615384615383
0.23846153846153847
0.23076923076923078
0.2153846153846154
0.18461538461538463
0.16923076923076924
0.14615384615384616
0.14615384615384616
0.14615384615384616
0.14615384615384616
0.13846153846153847
0.13846153846153847
0.12307692307692308
0.13076923076923078
0.12307692307692308
0.12307692307692308
0.11538461538461539
0.11538461538461539
0.1076923076923077
0.1
0.1
0.1
0.09230769230769231
0.09230769230769231
0.09230769230769231
0.08461538461538462
0.07692307692307693
0.06923076923076923
0.07692307692307693
0.07692307692307693
0.06923076923076923
0.06923076923076923
0.06153846153846154
0.05384615384615385
0.05384615384615385
0.05384615384615385
0.038461538461538464
0.038461538461538464
0.038461538461538464
0.03076923076923077
0.038461538461538464
0.038461538461538464
0.023076923076923078
0.023076923076923078
0.03076923076923077
0.03076923076923077
0.007692307692307693
0.007692307692307693
0.023076923076923078
0.03076923076923077
0.015384615384615385
0.007692307692307693
0.007692307692307693
0.007692307692307693
0.0
0.007692307692307693
0.007692307692307693
0.007692307692307693
0.0
-0.007692307692307693
-0.007692307692307693
-0.015384615384615385
-0.007692307692307693
-0.007692307692307693
-0.015384615384615385
-0.015384615384615385
-0.023076923076923078
-0.023076923076923078
-0.023076923076923078
-0.023076923076923078
-0.023076923076923078
-0.038461538461538464
-0.03076923076923077
-0.023076923076923078
-0.03076923076923077
-0.03076923076923077
-0.03076923076923077
-0.046153846153846156
-0.038461538461538464
-0.038461538461538464
-0.038461538461538464
-0.038461538461538464
-0.046153846153846156
-0.046153846153846156
-0.05384615384615385
-0.05384615384615385
-0.05384615384615385
-0.06153846153846154
-0.06923076923076923
-0.06153846153846154
-0.05384615384615385
-0.05384615384615385
-0.06153846153846154
-0.06153846153846154
-0.06923076923076923
-0.07692307692307693
-0.06923076923076923
-0.06923076923076923
-0.06923076923076923
-0.06923076923076923
-0.07692307692307693
-0.06923076923076923
-0.06923076923076923
-0.06923076923076923
-0.06923076923076923
-0.07692307692307693
-0.07692307692307693
-0.07692307692307693
-0.06923076923076923
-0.06153846153846154
-0.06153846153846154
-0.05384615384615385
-0.06153846153846154
-0.06153846153846154
-0.06153846153846154
-0.05384615384615385
-0.05384615384615385
-0.05384615384615385
-0.05384615384615385
-0.05384615384615385
-0.05384615384615385
-0.038461538461538464
-0.038461538461538464
-0.046153846153846156
-0.03076923076923077
-0.038461538461538464
-0.03076923076923077
-0.023076923076923078
-0.015384615384615385
-0.015384615384615385
-0.015384615384615385
0.0
0.007692307692307693
0.007692307692307693
0.015384615384615385
0.023076923076923078
0.015384615384615385
0.015384615384615385
0.007692307692307693
0.03076923076923077
0.015384615384615385
0.023076923076923078
0.023076923076923078
0.038461538461538464
0.038461538461538464
0.03076923076923077
0.03076923076923077
0.03076923076923077
0.05384615384615385
0.046153846153846156
0.038461538461538464
0.05384615384615385
0.06923076923076923
0.07692307692307693
0.06923076923076923
0.07692307692307693
0.07692307692307693
0.09230769230769231
0.1076923076923077
0.1
0.1076923076923077
0.1076923076923077
0.1076923076923077
0.11538461538461539
0.13846153846153847
0.14615384615384616
0.14615384615384616
0.14615384615384616
0.14615384615384616
0.17692307692307693
0.17692307692307693
0.19230769230769232
0.19230769230769232
0.19230769230769232
0.17692307692307693
0.17692307692307693
0.18461538461538463
0.17692307692307693
0.17692307692307693
0.17692307692307693
0.17692307692307693
0.17692307692307693
0.18461538461538463
0.16923076923076924
0.16923076923076924
0.17692307692307693
0.16923076923076924
0.16923076923076924
0.16923076923076924
0.16153846153846155
0.16923076923076924
0.15384615384615385
0.15384615384615385
0.16153846153846155
0.17692307692307693
0.16923076923076924
0.17692307692307693
0.18461538461538463
0.17692307692307693
0.17692307692307693
0.19230769230769232
0.19230769230769232
0.19230769230769232
0.17692307692307693
0.16923076923076924
0.17692307692307693
0.18461538461538463
0.18461538461538463
0.18461538461538463
0.17692307692307693
0.18461538461538463
0.18461538461538463
0.18461538461538463
0.18461538461538463
0.17692307692307693
0.17692307692307693
0.17692307692307693
0.18461538461538463
0.19230769230769232
0.2
0.2076923076923077
0.2
0.2
0.2076923076923077
0.2
0.2
0.2076923076923077
0.19230769230769232
0.18461538461538463
0.2
0.2
0.19230769230769232
0.19230769230769232
0.19230769230769232
0.19230769230769232
0.2076923076923077
0.2153846153846154
0.2
0.2
0.2
0.18461538461538463
0.2
0.2153846153846154
0.2076923076923077
0.19230769230769232
0.2
0.2
0.2
0.19230769230769232
0.2
0.19230769230769232
0.17692307692307693
0.16153846153846155
0.14615384615384616
0.12307692307692308
0.13076923076923078
0.1076923076923077
0.1
0.09230769230769231
0.06153846153846154
0.03076923076923077
0.007692307692307693
0.007692307692307693
-0.015384615384615385
-0.038461538461538464
-0.05384615384615385
-0.06923076923076923
-0.08461538461538462
-0.11538461538461539
-0.13076923076923078
-0.13846153846153847
-0.16923076923076924
-0.18461538461538463
-0.19230769230769232
-0.23076923076923078
-0.25384615384615383
-0.26153846153846155
-0.2846153846153846
-0.3076923076923077
-0.3230769230769231
-0.33076923076923076
-0.33076923076923076
-0.3076923076923077
-0.3076923076923077
-0.3076923076923077
-0.3
-0.3
-0.3
-0.2923076923076923
-0.27692307692307694
-0.2846153846153846
-0.27692307692307694
-0.2692307692307692
-0.2692307692307692
-0.2692307692307692
-0.2692307692307692
-0.27692307692307694
-0.27692307692307694
-0.2692307692307692
-0.2846153846153846
-0.2846153846153846
-0.2692307692307692
-0.26153846153846155
-0.26153846153846155
-0.24615384615384617
-0.24615384615384617
-0.23076923076923078
-0.2230769230769231
-0.2153846153846154
-0.2230769230769231
-0.2153846153846154
-0.2153846153846154
-0.2153846153846154
-0.2153846153846154
-0.23076923076923078
-0.2230769230769231
-0.2153846153846154
-0.2153846153846154
-0.2153846153846154
-0.2076923076923077
-0.19230769230769232
-0.19230769230769232
-0.19230769230769232
-0.17692307692307693
-0.15384615384615385
-0.1076923076923077
-0.08461538461538462
-0.06153846153846154
-0.023076923076923078
0.0
0.007692307692307693
0.015384615384615385
0.023076923076923078
0.03076923076923077
0.046153846153846156
0.06153846153846154
0.06153846153846154
0.07692307692307693
0.1076923076923077
0.12307692307692308
0.13076923076923078
0.15384615384615385
0.17692307692307693
0.19230769230769232
0.2153846153846154
0.2153846153846154
0.2153846153846154
0.23076923076923078
0.24615384615384617
0.25384615384615383
0.26153846153846155
0.27692307692307694
0.2692307692307692
0.26153846153846155
0.26153846153846155
0.25384615384615383
0.25384615384615383
0.26153846153846155
0.26153846153846155
0.24615384615384617
0.25384615384615383
0.2692307692307692
0.2692307692307692
0.26153846153846155
0.26153846153846155
0.26153846153846155
0.2692307692307692
0.2846153846153846
0.2846153846153846
0.27692307692307694
0.27692307692307694
0.2692307692307692
0.2692307692307692
0.27692307692307694
0.27692307692307694
0.2923076923076923
0.3
0.3
0.2846153846153846
0.2846153846153846
0.3076923076923077
0.3076923076923077
0.3153846153846154
0.33076923076923076
0.3384615384615385
0.34615384615384615
0.35384615384615387
0.36923076923076925
0.3769230769230769
0.38461538461538464
0.3923076923076923
0.4
0.4076923076923077
0.4153846153846154
0.4307692307692308
0.4307692307692308
0.4230769230769231
0.4307692307692308
0.4307692307692308
0.4230769230769231
0.4230769230769231
0.4307692307692308
0.4230769230769231
0.43846153846153846
0.4461538461538462
0.45384615384615384
0.45384615384615384
0.45384615384615384
0.46923076923076923
0.49230769230769234
0.49230769230769234
0.47692307692307695
0.4846153846153846
0.5
0.5
0.4846153846153846
0.49230769230769234
0.49230769230769234
0.49230769230769234
0.4846153846153846
0.4846153846153846
0.49230769230769234
0.49230769230769234
0.4846153846153846
0.47692307692307695
0.4846153846153846
0.4846153846153846
0.47692307692307695
0.47692307692307695
0.4846153846153846
0.49230769230769234
0.47692307692307695
0.47692307692307695
0.49230769230769234
0.5
0.49230769230769234
0.5
0.5
0.5076923076923077
0.5230769230769231
0.5076923076923077
0.5
0.5
0.49230769230769234
0.49230769230769234
0.5
0.49230769230769234
0.5
0.47692307692307695
0.47692307692307695
0.47692307692307695
0.47692307692307695
0.47692307692307695
0.47692307692307695
0.47692307692307695
0.47692307692307695
0.4846153846153846
0.4846153846153846
0.46923076923076923
0.46923076923076923
0.46153846153846156
0.45384615384615384
0.4461538461538462
0.43846153846153846
0.4153846153846154
0.4230769230769231
0.4307692307692308
0.4076923076923077
0.4
0.4
0.4076923076923077
0.38461538461538464
0.38461538461538464
0.38461538461538464
0.36923076923076925
0.36153846153846153
0.36923076923076925
0.36923076923076925
0.3384615384615385
0.34615384615384615
0.35384615384615387
0.34615384615384615
0.3230769230769231
0.34615384615384615
0.34615384615384615
0.33076923076923076
0.33076923076923076
0.3384615384615385
0.33076923076923076
0.3153846153846154
0.3076923076923077
0.3076923076923077
0.3076923076923077
0.3153846153846154
0.3076923076923077
0.3
0.3
0.2923076923076923
0.3
0.2923076923076923
0.2846153846153846
0.27692307692307694
0.27692307692307694
0.2692307692307692
0.26153846153846155
0.2692307692307692
0.2692307692307692
0.26153846153846155
0.25384615384615383
0.25384615384615383
0.26153846153846155
0.25384615384615383
0.25384615384615383
0.24615384615384617
0.24615384615384617
0.23846153846153847
0.23076923076923078
0.23846153846153847
0.23846153846153847
0.24615384615384617
0.25384615384615383
0.23846153846153847
0.23846153846153847
0.23846153846153847
0.23846153846153847
0.23846153846153847
0.25384615384615383
0.24615384615384617
0.23846153846153847
0.23846153846153847
0.25384615384615383
0.24615384615384617
0.23846153846153847
0.24615384615384617
0.23846153846153847
0.23846153846153847
0.25384615384615383
0.24615384615384617
0.23846153846153847
0.23846153846153847
0.24615384615384617
0.23846153846153847
0.23846153846153847
0.24615384615384617
0.24615384615384617
0.23846153846153847
0.24615384615384617
0.24615384615384617
0.25384615384615383
0.25384615384615383
0.23076923076923078
0.23846153846153847
0.26153846153846155
0.24615384615384617
0.23846153846153847
0.24615384615384617
0.25384615384615383
0.23076923076923078
0.23076923076923078
0.24615384615384617
0.23846153846153847
0.23846153846153847
0.23846153846153847
0.2230769230769231
0.23076923076923078
0.24615384615384617
0.23846153846153847
0.23846153846153847
0.23846153846153847
0.23846153846153847
0.23846153846153847
0.24615384615384617
0.24615384615384617
0.23846153846153847
0.24615384615384617
0.23846153846153847
0.2230769230769231
0.2230769230769231
0.23076923076923078
0.23076923076923078
0.23846153846153847
0.23076923076923078
0.23076923076923078
0.23846153846153847
0.23846153846153847
0.23846153846153847
0.23846153846153847
0.24615384615384617
0.24615384615384617
0.23846153846153847
0.24615384615384617
0.25384615384615383
0.23846153846153847
0.24615384615384617
0.25384615384615383
0.25384615384615383
0.24615384615384617
0.24615384615384617
0.23846153846153847
0.2230769230769231
0.23076923076923078
0.24615384615384617
0.23846153846153847
0.23076923076923078
0.23076923076923078
0.23846153846153847
0.24615384615384617
0.25384615384615383
0.25384615384615383
0.24615384615384617
0.26153846153846155
0.26153846153846155
0.23846153846153847
0.24615384615384617
0.25384615384615383
0.23846153846153847
0.23076923076923078
0.23076923076923078
0.23076923076923078
0.23076923076923078
0.23846153846153847
0.23846153846153847
0.23076923076923078
0.23076923076923078
0.23846153846153847
0.23846153846153847
0.23076923076923078
0.23846153846153847
0.23076923076923078
0.2230769230769231
0.23076923076923078
0.23846153846153847
0.23076923076923078
0.2230769230769231
0.2153846153846154
0.2230769230769231
0.23076923076923078
0.23846153846153847
0.23846153846153847
0.23846153846153847
0.2230769230769231
0.23076923076923078
0.23846153846153847
0.23846153846153847
0.23076923076923078
0.23076923076923078
0.23076923076923078
0.2230769230769231
0.2153846153846154
0.2230769230769231
0.2230769230769231
0.2153846153846154
0.23076923076923078
0.2230769230769231
0.2230769230769231
0.23076923076923078
0.2230769230769231
0.23076923076923078
0.2230769230769231
0.2230769230769231
0.23076923076923078
0.23846153846153847
0.23076923076923078
0.2230769230769231
0.23076923076923078
0.23076923076923078
0.2230769230769231
0.2230769230769231
0.2230769230769231
0.2230769230769231
0.2230769230769231
0.2153846153846154
0.2153846153846154
0.23076923076923078
0.23076923076923078
0.2153846153846154
0.2230769230769231
0.2230769230769231
0.2076923076923077
0.2230769230769231
0.2153846153846154
0.2
0.2153846153846154
0.2153846153846154
0.2076923076923077
0.2076923076923077
0.2153846153846154
0.2153846153846154
0.2076923076923077
0.2076923076923077
0.2076923076923077
0.2076923076923077
0.2153846153846154
0.2076923076923077
0.2076923076923077
0.2153846153846154
0.2076923076923077
0.2153846153846154
0.2153846153846154
0.2153846153846154
0.2076923076923077
0.2076923076923077
0.2230769230769231
0.2230769230769231
0.2153846153846154
0.2153846153846154
0.2076923076923077
0.2076923076923077
0.2076923076923077
0.2
0.2076923076923077
0.2076923076923077
0.2
0.2076923076923077
0.2076923076923077
0.2153846153846154
0.2153846153846154
0.2153846153846154
0.2076923076923077
0.2153846153846154
0.2153846153846154
0.2153846153846154
0.2230769230769231
0.23076923076923078
0.2230769230769231
0.2230769230769231
0.23076923076923078
0.2230769230769231
0.23076923076923078
0.23076923076923078
0.2230769230769231
0.2153846153846154
0.2076923076923077
0.2153846153846154
0.2153846153846154
0.2076923076923077
0.2153846153846154
0.2076923076923077
0.2076923076923077
0.2153846153846154
0.2153846153846154
0.2153846153846154
0.2076923076923077
0.2076923076923077
0.2076923076923077
0.2153846153846154
0.2153846153846154
0.2153846153846154
0.2153846153846154
0.2153846153846154
0.2153846153846154
0.2230769230769231
0.2153846153846154
0.2153846153846154
0.2076923076923077
0.2076923076923077
0.2230769230769231
0.23076923076923078
0.2230769230769231
0.2230769230769231
0.2230769230769231
0.2230769230769231
0.23076923076923078
0.23076923076923078
0.2230769230769231
0.2076923076923077
0.2153846153846154
0.2076923076923077
0.2
0.2
0.2
0.2
0.2076923076923077
0.2076923076923077
0.19230769230769232
0.2153846153846154
0.2230769230769231
0.2076923076923077
0.2076923076923077
0.2153846153846154
0.2076923076923077
0.2076923076923077
0.2076923076923077
0.18461538461538463
0.18461538461538463
0.19230769230769232
0.19230769230769232
0.18461538461538463
0.18461538461538463
0.2
0.18461538461538463
0.18461538461538463
0.18461538461538463
0.18461538461538463
0.19230769230769232
0.18461538461538463
0.17692307692307693
0.17692307692307693
0.19230769230769232
0.18461538461538463
0.18461538461538463
0.18461538461538463
0.18461538461538463
0.19230769230769232
0.19230769230769232
0.2
0.19230769230769232
0.19230769230769232
0.2
0.19230769230769232
0.19230769230769232
0.2076923076923077
0.2
0.19230769230769232
0.19230769230769232
0.2
0.2
0.2
0.2
0.19230769230769232
0.2
0.2076923076923077
0.2
0.2
0.2153846153846154
0.2
0.19230769230769232
0.2076923076923077
0.2076923076923077
0.2
0.19230769230769232
0.19230769230769232
0.19230769230769232
0.19230769230769232
0.2
0.2
0.2076923076923077
0.2076923076923077
0.2076923076923077
0.2153846153846154
0.2230769230769231
0.2230769230769231
0.2230769230769231
0.2153846153846154
0.2230769230769231
0.2076923076923077
0.2076923076923077
0.2076923076923077
0.2153846153846154
0.2153846153846154
0.2076923076923077
0.2076923076923077
0.2076923076923077
0.2230769230769231
0.2153846153846154
0.2153846153846154
0.2153846153846154
0.2153846153846154
0.2
0.2153846153846154
0.2153846153846154
0.2153846153846154
0.2076923076923077
0.2153846153846154
0.2
0.2076923076923077
0.2076923076923077
0.2153846153846154
0.2076923076923077
0.2076923076923077
0.2153846153846154
0.2153846153846154
0.2076923076923077
0.2076923076923077
0.2076923076923077
0.2076923076923077
0.2076923076923077
0.2076923076923077
0.2153846153846154
0.2153846153846154
0.2153846153846154
0.2076923076923077
0.2153846153846154
0.2230769230769231
0.2153846153846154
0.2076923076923077
0.2076923076923077
0.2076923076923077
0.2
0.2076923076923077
0.2230769230769231
0.23076923076923078
0.26153846153846155
0.25384615384615383
0.26153846153846155
0.27692307692307694
0.27692307692307694
0.2923076923076923
0.2923076923076923
0.3
0.3153846153846154
0.3076923076923077
0.3230769230769231
0.3230769230769231
0.3153846153846154
0.33076923076923076
0.3384615384615385
0.33076923076923076
0.3076923076923077
0.3153846153846154
0.3230769230769231
0.3153846153846154
0.3076923076923077
0.3076923076923077
0.2923076923076923
0.3
0.3
0.27692307692307694
0.2692307692307692
0.26153846153846155
0.25384615384615383
0.24615384615384617
0.24615384615384617
0.23846153846153847
0.23076923076923078
0.23076923076923078
0.23076923076923078
0.2230769230769231
0.2230769230769231
0.2153846153846154
0.2153846153846154
0.2076923076923077
0.2153846153846154
0.2076923076923077
0.2
0.2
0.2076923076923077
0.2076923076923077
0.2076923076923077
0.19230769230769232
0.19230769230769232
0.2
0.2076923076923077
0.2
0.2
0.2
0.19230769230769232
0.19230769230769232
0.19230769230769232
0.18461538461538463
0.18461538461538463
0.18461538461538463
0.17692307692307693
0.17692307692307693
0.17692307692307693
0.17692307692307693
0.17692307692307693
0.17692307692307693
0.16153846153846155
0.15384615384615385
0.16153846153846155
0.15384615384615385
0.15384615384615385
0.15384615384615385
0.14615384615384616
0.14615384615384616
0.15384615384615385
0.15384615384615385
0.14615384615384616
0.13076923076923078
0.13846153846153847
0.13846153846153847
0.13076923076923078
0.13076923076923078
0.13076923076923078
0.13076923076923078
0.13076923076923078
0.13076923076923078
0.13076923076923078
0.12307692307692308
0.12307692307692308
0.1076923076923077
0.09230769230769231
0.1
0.1
0.12307692307692308
0.13076923076923078
0.14615384615384616
0.16923076923076924
0.18461538461538463
0.19230769230769232
0.2076923076923077
0.2076923076923077
0.2076923076923077
0.2153846153846154
0.2153846153846154
0.23076923076923078
0.23846153846153847
0.25384615384615383
0.26153846153846155
0.2846153846153846
0.33076923076923076
0.34615384615384615
0.3769230769230769
0.4076923076923077
0.4076923076923077
0.4230769230769231
0.4076923076923077
0.3923076923076923
0.36923076923076925
0.36923076923076925
0.35384615384615387
0.33076923076923076
0.3384615384615385
0.3384615384615385
0.3076923076923077
0.3
0.3076923076923077
0.2846153846153846
0.27692307692307694
0.2846153846153846
0.27692307692307694
0.25384615384615383
0.25384615384615383
0.24615384615384617
0.24615384615384617
0.23846153846153847
0.23846153846153847
0.23076923076923078
0.2230769230769231
0.2076923076923077
0.19230769230769232
0.19230769230769232
0.18461538461538463
0.18461538461538463
0.17692307692307693
0.16923076923076924
0.16153846153846155
0.16153846153846155
0.16923076923076924
0.16153846153846155
0.16153846153846155
0.15384615384615385
0.16153846153846155
0.16923076923076924
0.16923076923076924
0.16153846153846155
0.15384615384615385
0.15384615384615385
0.14615384615384616
0.14615384615384616
0.15384615384615385
0.14615384615384616
0.13846153846153847
0.13846153846153847
0.11538461538461539
0.11538461538461539
0.13076923076923078
0.13076923076923078
0.11538461538461539
0.1076923076923077
0.11538461538461539
0.12307692307692308
0.12307692307692308
0.12307692307692308
0.11538461538461539
0.11538461538461539
0.11538461538461539
0.11538461538461539
0.11538461538461539
0.1076923076923077
0.1
0.1076923076923077
0.1076923076923077
0.11538461538461539
0.11538461538461539
0.11538461538461539
0.11538461538461539
0.1076923076923077
0.1076923076923077
0.1
0.09230769230769231
0.1
0.1
0.09230769230769231
0.08461538461538462
0.09230769230769231
0.09230769230769231
0.09230769230769231
0.1
0.09230769230769231
0.09230769230769231
0.1
0.1
0.09230769230769231
0.09230769230769231
0.09230769230769231
0.1076923076923077
0.12307692307692308
0.1
0.1
0.1
0.1
0.09230769230769231
0.1
0.1
0.1
0.1
0.1
0.1
0.1
0.11538461538461539
0.1076923076923077
0.1
0.09230769230769231
0.1
0.1
0.09230769230769231
0.1
0.09230769230769231
0.09230769230769231
0.1
0.1
0.1
0.1076923076923077
0.1076923076923077
0.09230769230769231
0.1
0.11538461538461539
0.1076923076923077
0.1076923076923077
0.11538461538461539
0.1076923076923077
0.1076923076923077
0.1076923076923077
0.1076923076923077
0.1076923076923077
0.1076923076923077
0.1
0.11538461538461539
0.12307692307692308
0.1
0.1076923076923077
0.11538461538461539
0.1076923076923077
0.11538461538461539
0.13076923076923078
0.11538461538461539
0.1076923076923077
0.1076923076923077
0.1076923076923077
0.11538461538461539
0.11538461538461539
0.1076923076923077
0.11538461538461539
0.11538461538461539
0.1076923076923077
0.1076923076923077
0.12307692307692308
0.11538461538461539
0.12307692307692308
0.12307692307692308
0.13076923076923078
0.13076923076923078
0.13076923076923078
0.13846153846153847
0.13076923076923078
0.12307692307692308
0.13846153846153847
0.14615384615384616
0.16153846153846155
0.16153846153846155
0.15384615384615385
0.16923076923076924
0.16923076923076924
0.16923076923076924
0.16923076923076924
0.16923076923076924
0.16923076923076924
0.16153846153846155
0.16923076923076924
0.16153846153846155
0.16923076923076924
0.17692307692307693
0.16153846153846155
0.16923076923076924
0.17692307692307693
0.17692307692307693
0.18461538461538463
0.18461538461538463
0.18461538461538463
0.18461538461538463
0.18461538461538463
0.18461538461538463
0.2
0.18461538461538463
0.18461538461538463
0.17692307692307693
0.17692307692307693
0.18461538461538463
0.19230769230769232
0.2
0.2
0.2076923076923077
0.2076923076923077
0.2076923076923077
0.2230769230769231
0.2153846153846154
0.2153846153846154
0.2153846153846154
0.2076923076923077
0.2076923076923077
0.19230769230769232
0.2
0.19230769230769232
0.2076923076923077
0.2076923076923077
0.2076923076923077
0.2153846153846154
0.2230769230769231
0.2230769230769231
0.2153846153846154
0.2153846153846154
0.2230769230769231
0.2230769230769231
0.2230769230769231
0.2153846153846154
0.2153846153846154
0.2153846153846154
0.2153846153846154
0.2153846153846154
0.2153846153846154
0.2076923076923077
0.2076923076923077
0.2076923076923077
0.2
0.19230769230769232
0.19230769230769232
0.19230769230769232
0.19230769230769232
0.19230769230769232
0.2076923076923077
0.2076923076923077
0.2153846153846154
0.2
0.2076923076923077
0.2076923076923077
0.2153846153846154
0.2153846153846154
0.2153846153846154
0.2076923076923077
0.2230769230769231
0.2076923076923077
0.2076923076923077
0.2153846153846154
0.2076923076923077
0.2
0.2076923076923077
0.2076923076923077
0.2
0.2
0.2153846153846154
0.2076923076923077
0.2
0.2076923076923077
0.2076923076923077
0.2076923076923077
0.19230769230769232
0.2
0.2230769230769231
0.2076923076923077
0.2230769230769231
0.2230769230769231
0.2076923076923077
0.2076923076923077
0.2153846153846154
0.2230769230769231
0.2153846153846154
0.2076923076923077
0.2076923076923077
0.2076923076923077
0.2076923076923077
0.2
0.2076923076923077
0.2076923076923077
0.2
0.2076923076923077
0.2153846153846154
0.2076923076923077
0.2076923076923077
0.2153846153846154
0.2230769230769231
0.2153846153846154
0.2076923076923077
0.2076923076923077
0.2153846153846154
0.2076923076923077
0.2076923076923077
0.2076923076923077
0.2
0.19230769230769232
0.18461538461538463
0.19230769230769232
0.2
0.2
0.2076923076923077
0.2076923076923077
0.2076923076923077
0.2153846153846154
0.2153846153846154
0.2076923076923077
0.2153846153846154
0.2153846153846154
0.2153846153846154
0.2153846153846154
0.2153846153846154
0.2230769230769231
0.2230769230769231
0.2230769230769231
0.2230769230769231
0.2230769230769231
0.2153846153846154
0.2153846153846154
0.2153846153846154
0.2076923076923077
0.2076923076923077
0.2153846153846154
0.2230769230769231
0.2153846153846154
0.2076923076923077
0.2076923076923077
0.2076923076923077
0.2076923076923077
0.2076923076923077
0.2230769230769231
0.2076923076923077
0.2076923076923077
0.2230769230769231
0.2153846153846154
0.2153846153846154
0.2153846153846154
0.2153846153846154
0.2153846153846154
0.2076923076923077
0.2230769230769231
0.2153846153846154
0.2076923076923077
0.2076923076923077
0.2153846153846154
0.2153846153846154
0.2153846153846154
0.2230769230769231
0.2230769230769231
0.24615384615384617
0.26153846153846155
0.2692307692307692
0.2846153846153846
0.3076923076923077
0.3153846153846154
0.3230769230769231
0.3230769230769231
0.33076923076923076
0.34615384615384615
0.34615384615384615
0.35384615384615387
0.36923076923076925
0.3769230769230769
0.4
0.4307692307692308
0.4461538461538462
0.45384615384615384
0.47692307692307695
0.5076923076923077
0.5153846153846153
0.5307692307692308
0.5384615384615384
0.5384615384615384
0.5538461538461539
0.5769230769230769
0.5769230769230769
0.5846153846153846
0.5923076923076923
0.6
0.5923076923076923
0.6153846153846154
0.6230769230769231
0.6230769230769231
0.6307692307692307
0.6384615384615384
0.6384615384615384
0.6461538461538462
0.6692307692307692
0.676923076923077
0.6846153846153846
0.6923076923076923
0.6846153846153846
0.676923076923077
0.676923076923077
0.676923076923077
0.676923076923077
0.676923076923077
0.6538461538461539
0.6384615384615384
0.6307692307692307
0.6153846153846154
0.6076923076923076
0.5846153846153846
0.5538461538461539
0.5538461538461539
0.5538461538461539
0.5461538461538461
0.5307692307692308
0.5384615384615384
0.5230769230769231
0.5
0.5
0.5076923076923077
0.49230769230769234
0.49230769230769234
0.49230769230769234
0.49230769230769234
0.47692307692307695
0.47692307692307695
0.46923076923076923
0.46923076923076923
0.46923076923076923
0.45384615384615384
0.4307692307692308
0.43846153846153846
0.4230769230769231
0.4076923076923077
0.3923076923076923
0.36153846153846153
0.3384615384615385
0.3153846153846154
0.3
0.2692307692307692
0.25384615384615383
0.23846153846153847
0.2153846153846154
0.2
0.18461538461538463
0.15384615384615385
0.14615384615384616
0.14615384615384616
0.13846153846153847
0.13076923076923078
0.12307692307692308
0.12307692307692308
0.12307692307692308
0.11538461538461539
0.12307692307692308
0.12307692307692308
0.12307692307692308
0.12307692307692308
0.11538461538461539
0.1076923076923077
0.11538461538461539
0.12307692307692308
0.12307692307692308
0.11538461538461539
0.1076923076923077
0.1
0.1
0.09230769230769231
0.08461538461538462
0.09230769230769231
0.08461538461538462
0.08461538461538462
0.1
0.09230769230769231
0.07692307692307693
0.07692307692307693
0.07692307692307693
0.07692307692307693
0.07692307692307693
0.07692307692307693
0.06923076923076923
0.06153846153846154
0.06153846153846154
0.05384615384615385
0.06153846153846154
0.06153846153846154
0.06153846153846154
0.046153846153846156
0.038461538461538464
0.038461538461538464
0.038461538461538464
0.03076923076923077
0.03076923076923077
0.03076923076923077
0.03076923076923077
0.015384615384615385
0.023076923076923078
0.03076923076923077
0.015384615384615385
0.007692307692307693
0.0
-0.007692307692307693
0.0
0.0
-0.007692307692307693
-0.015384615384615385
-0.015384615384615385
-0.007692307692307693
-0.015384615384615385
-0.023076923076923078
-0.023076923076923078
-0.03076923076923077
-0.038461538461538464
-0.038461538461538464
-0.03076923076923077
-0.038461538461538464
-0.038461538461538464
-0.046153846153846156
-0.05384615384615385
-0.05384615384615385
-0.046153846153846156
-0.06923076923076923
-0.05384615384615385
-0.05384615384615385
-0.06923076923076923
-0.06923076923076923
-0.06153846153846154
-0.06153846153846154
-0.06153846153846154
-0.06153846153846154
-0.05384615384615385
-0.06153846153846154
-0.06153846153846154
-0.05384615384615385
-0.07692307692307693
-0.06923076923076923
-0.06153846153846154
-0.06153846153846154
-0.06923076923076923
-0.06153846153846154
-0.06153846153846154
-0.06153846153846154
-0.06153846153846154
-0.06923076923076923
-0.07692307692307693
-0.06153846153846154
-0.06153846153846154
-0.06923076923076923
-0.06923076923076923
-0.05384615384615385
-0.05384615384615385
-0.05384615384615385
-0.046153846153846156
-0.046153846153846156
-0.046153846153846156
-0.046153846153846156
-0.05384615384615385
-0.05384615384615385
-0.038461538461538464
-0.046153846153846156
-0.05384615384615385
-0.046153846153846156
-0.038461538461538464
-0.046153846153846156
-0.038461538461538464
-0.03076923076923077
-0.038461538461538464
-0.03076923076923077
-0.015384615384615385
-0.023076923076923078
-0.015384615384615385
0.007692307692307693
0.0
-0.007692307692307693
0.007692307692307693
0.023076923076923078
0.007692307692307693
0.023076923076923078
0.03076923076923077
0.015384615384615385
0.03076923076923077
0.038461538461538464
0.03076923076923077
0.03076923076923077
0.038461538461538464
0.03076923076923077
0.038461538461538464
0.046153846153846156
0.03076923076923077
0.03076923076923077
0.05384615384615385
0.046153846153846156
0.046153846153846156
0.06153846153846154
0.06923076923076923
0.06153846153846154
0.06923076923076923
0.06923076923076923
0.06923076923076923
0.09230769230769231
0.1
0.1
0.1
0.1076923076923077
0.1076923076923077
0.12307692307692308
0.13076923076923078
0.12307692307692308
0.13076923076923078
0.14615384615384616
0.14615384615384616
0.15384615384615385
0.16923076923076924
0.16923076923076924
0.16153846153846155
0.17692307692307693
0.17692307692307693
0.16923076923076924
0.17692307692307693
0.19230769230769232
0.17692307692307693
0.17692307692307693
0.17692307692307693
0.18461538461538463
0.19230769230769232
0.18461538461538463
0.18461538461538463
0.17692307692307693
0.18461538461538463
0.18461538461538463
0.17692307692307693
0.17692307692307693
0.17692307692307693
0.18461538461538463
0.18461538461538463
0.16923076923076924
0.18461538461538463
0.18461538461538463
0.18461538461538463
0.18461538461538463
0.19230769230769232
0.19230769230769232
0.19230769230769232
0.18461538461538463
0.19230769230769232
0.19230769230769232
0.2
0.19230769230769232
0.2076923076923077
0.19230769230769232
0.19230769230769232
0.19230769230769232
0.19230769230769232
0.19230769230769232
0.2
0.19230769230769232
0.2
0.2076923076923077
0.2076923076923077
0.2076923076923077
0.2076923076923077
0.2076923076923077
0.2076923076923077
0.2153846153846154
0.2076923076923077
0.2
0.2
0.19230769230769232
0.17692307692307693
0.17692307692307693
0.17692307692307693
0.17692307692307693
0.17692307692307693
0.18461538461538463
0.19230769230769232
0.2
0.2
0.19230769230769232
0.2
0.2076923076923077
0.2153846153846154
0.2076923076923077
0.2076923076923077
0.2076923076923077
0.2153846153846154
0.2
0.2076923076923077
0.2076923076923077
0.2
0.2076923076923077
0.2153846153846154
0.2153846153846154
0.19230769230769232
0.18461538461538463
0.16923076923076924
0.16153846153846155
0.14615384615384616
0.13076923076923078
0.11538461538461539
0.1
0.06923076923076923
0.06153846153846154
0.046153846153846156
0.023076923076923078
0.0
-0.023076923076923078
-0.038461538461538464
-0.05384615384615385
-0.06923076923076923
-0.09230769230769231
-0.1
-0.11538461538461539
-0.13076923076923078
-0.14615384615384616
-0.16923076923076924
-0.2
-0.23076923076923078
-0.25384615384615383
-0.27692307692307694
-0.2923076923076923
-0.3076923076923077
-0.3153846153846154
-0.3153846153846154
-0.3076923076923077
-0.3
-0.3
-0.2923076923076923
-0.2846153846153846
-0.2923076923076923
-0.2846153846153846
-0.2846153846153846
-0.2692307692307692
-0.2692307692307692
-0.2692307692307692
-0.26153846153846155
-0.2692307692307692
-0.26153846153846155
-0.2692307692307692
-0.2692307692307692
-0.2692307692307692
-0.27692307692307694
-0.2846153846153846
-0.2692307692307692
-0.26153846153846155
-0.26153846153846155
-0.24615384615384617
-0.23076923076923078
-0.2230769230769231
-0.2230769230769231
-0.2153846153846154
-0.2153846153846154
-0.2230769230769231
-0.2230769230769231
-0.2230769230769231
-0.23076923076923078
-0.2153846153846154
-0.2153846153846154
-0.2153846153846154
-0.2153846153846154
-0.2076923076923077
-0.2076923076923077
-0.2076923076923077
-0.2076923076923077
-0.2
-0.17692307692307693
-0.14615384615384616
-0.11538461538461539
-0.08461538461538462
-0.05384615384615385
-0.023076923076923078
-0.007692307692307693
0.007692307692307693
0.015384615384615385
0.023076923076923078
0.038461538461538464
0.038461538461538464
0.038461538461538464
0.06153846153846154
0.07692307692307693
0.1
0.11538461538461539
0.13846153846153847
0.15384615384615385
0.16923076923076924
0.2
0.2076923076923077
0.2153846153846154
0.2230769230769231
0.2230769230769231
0.23076923076923078
0.24615384615384617
0.26153846153846155
0.2692307692307692
0.2692307692307692
0.26153846153846155
0.25384615384615383
0.24615384615384617
0.25384615384615383
0.23846153846153847
0.23076923076923078
0.23846153846153847
0.25384615384615383
0.25384615384615383
0.26153846153846155
0.27692307692307694
0.2692307692307692
0.26153846153846155
0.2692307692307692
0.2692307692307692
0.2692307692307692
0.27692307692307694
0.27692307692307694
0.2692307692307692
0.27692307692307694
0.2692307692307692
0.2692307692307692
0.2692307692307692
0.27692307692307694
0.2923076923076923
0.2846153846153846
0.2923076923076923
0.2923076923076923
0.3
0.3076923076923077
0.3076923076923077
0.3230769230769231
0.33076923076923076
0.34615384615384615
0.35384615384615387
0.36153846153846153
0.3769230769230769
0.38461538461538464
0.4
0.4153846153846154
0.4230769230769231
0.4307692307692308
0.4230769230769231
0.4230769230769231
0.4230769230769231
0.4230769230769231
0.4153846153846154
0.4153846153846154
0.4230769230769231
0.4230769230769231
0.4230769230769231
0.45384615384615384
0.45384615384615384
0.46153846153846156
0.46923076923076923
0.46923076923076923
0.47692307692307695
0.5
0.4846153846153846
0.47692307692307695
0.49230769230769234
0.49230769230769234
0.49230769230769234
0.5076923076923077
0.5
0.49230769230769234
0.5
0.49230769230769234
0.4846153846153846
0.49230769230769234
0.5076923076923077
0.5
0.49230769230769234
0.49230769230769234
0.49230769230769234
0.49230769230769234
0.4846153846153846
0.4846153846153846
0.49230769230769234
0.49230769230769234
0.49230769230769234
0.5
0.5
0.49230769230769234
0.5
0.5076923076923077
0.5
0.49230769230769234
0.4846153846153846
0.49230769230769234
0.4846153846153846
0.4846153846153846
0.47692307692307695
0.47692307692307695
0.4846153846153846
0.47692307692307695
0.46923076923076923
0.47692307692307695
0.46923076923076923
0.46923076923076923
0.46153846153846156
0.46153846153846156
0.45384615384615384
0.4461538461538462
0.46153846153846156
0.46153846153846156
0.46153846153846156
0.45384615384615384
0.4461538461538462
0.4307692307692308
0.43846153846153846
0.4307692307692308
0.4307692307692308
0.4153846153846154
0.4076923076923077
0.4
0.4
0.3923076923076923
0.3923076923076923
0.38461538461538464
0.36923076923076925
0.36923076923076925
0.36923076923076925
0.36153846153846153
0.35384615384615387
0.36923076923076925
0.36923076923076925
0.35384615384615387
0.34615384615384615
0.36153846153846153
0.34615384615384615
0.33076923076923076
0.3384615384615385
0.3384615384615385
0.33076923076923076
0.33076923076923076
0.3153846153846154
0.3153846153846154
0.3153846153846154
0.3076923076923077
0.3076923076923077
0.3
0.3076923076923077
0.3076923076923077
0.3
0.2923076923076923
0.3
0.3
0.3
0.3
0.2923076923076923
0.2846153846153846
0.2692307692307692
0.2692307692307692
0.27692307692307694
0.27692307692307694
0.2846153846153846
0.2692307692307692
0.2692307692307692
0.2692307692307692
0.26153846153846155
0.24615384615384617
0.25384615384615383
0.25384615384615383
0.25384615384615383
0.2692307692307692
0.26153846153846155
0.25384615384615383
0.24615384615384617
0.24615384615384617
0.25384615384615383
0.26153846153846155
0.25384615384615383
0.26153846153846155
0.25384615384615383
0.25384615384615383
0.26153846153846155
0.25384615384615383
0.24615384615384617
0.25384615384615383
0.24615384615384617
0.23846153846153847
0.24615384615384617
0.24615384615384617
0.24615384615384617
0.24615384615384617
0.24615384615384617
0.23846153846153847
0.24615384615384617
0.24615384615384617
0.24615384615384617
0.24615384615384617
0.25384615384615383
0.24615384615384617
0.24615384615384617
0.24615384615384617
0.24615384615384617
0.23076923076923078
0.23846153846153847
0.23076923076923078
0.2230769230769231
0.2230769230769231
0.2230769230769231
0.2230769230769231
0.2153846153846154
0.2153846153846154
0.2153846153846154
0.23076923076923078
0.23076923076923078
0.23076923076923078
0.23076923076923078
0.23076923076923078
0.2230769230769231
0.2230769230769231
0.2230769230769231
0.2076923076923077
0.2
0.2076923076923077
0.2230769230769231
0.2230769230769231
0.23076923076923078
0.23076923076923078
0.23076923076923078
0.23076923076923078
0.2230769230769231
0.23846153846153847
0.23846153846153847
0.23076923076923078
0.2076923076923077
0.2153846153846154
0.23076923076923078
0.2153846153846154
0.2153846153846154
0.2230769230769231
0.23846153846153847
0.2230769230769231
0.2230769230769231
0.23076923076923078
0.2230769230769231
0.2153846153846154
0.2153846153846154
0.2153846153846154
0.2076923076923077
0.23076923076923078
0.2230769230769231
0.2230769230769231
0.23076923076923078
0.23846153846153847
0.23076923076923078
0.24615384615384617
0.23846153846153847
0.23846153846153847
0.23076923076923078
0.23076923076923078
0.23076923076923078
0.23076923076923078
0.23076923076923078
0.2230769230769231
0.2230769230769231
0.23076923076923078
0.2230769230769231
0.23076923076923078
0.23846153846153847
0.23076923076923078
0.23076923076923078
0.23076923076923078
0.23076923076923078
0.23076923076923078
0.23076923076923078
0.2153846153846154
0.2153846153846154
0.2230769230769231
0.2230769230769231
0.2153846153846154
0.23076923076923078
0.23076923076923078
0.23076923076923078
0.23846153846153847
0.24615384615384617
0.23076923076923078
0.23846153846153847
0.23846153846153847
0.23076923076923078
0.2230769230769231
0.23076923076923078
0.23076923076923078
0.2153846153846154
0.2230769230769231
0.2230769230769231
0.23076923076923078
0.2230769230769231
0.23076923076923078
0.23076923076923078
0.2230769230769231
0.2230769230769231
0.2230769230769231
0.2230769230769231
0.23846153846153847
0.2230769230769231
0.2230769230769231
0.2230769230769231
0.2230769230769231
0.2153846153846154
0.2230769230769231
0.2230769230769231
0.2076923076923077
0.2153846153846154
0.23076923076923078
0.23076923076923078
0.2153846153846154
0.2230769230769231
0.2153846153846154
0.2230769230769231
0.2230769230769231
0.2153846153846154
0.2230769230769231
0.23076923076923078
0.2153846153846154
0.2
0.2076923076923077
0.2076923076923077
0.2
0.2230769230769231
0.2153846153846154
0.2076923076923077
0.2153846153846154
0.2153846153846154
0.2230769230769231
0.23076923076923078
0.23846153846153847
0.2230769230769231
0.23076923076923078
0.23846153846153847
0.23846153846153847
0.23076923076923078
0.23076923076923078
0.2230769230769231
0.2230769230769231
0.2230769230769231
0.2230769230769231
0.2230769230769231
0.2153846153846154
0.2153846153846154
0.2230769230769231
0.2230769230769231
0.2153846153846154
0.2230769230769231
0.2230769230769231
0.2153846153846154
0.2153846153846154
0.2230769230769231
0.2230769230769231
0.2230769230769231
0.2153846153846154
0.2153846153846154
0.2153846153846154
0.2153846153846154
0.2153846153846154
0.2153846153846154
0.2230769230769231
0.2153846153846154
0.2153846153846154
0.2153846153846154
0.2153846153846154
0.2153846153846154
0.2153846153846154
0.2230769230769231
0.2076923076923077
0.2153846153846154
0.2230769230769231
0.2153846153846154
0.2
0.2076923076923077
0.2153846153846154
0.2153846153846154
0.2153846153846154
0.2076923076923077
0.2153846153846154
0.2153846153846154
0.2076923076923077
0.2076923076923077
0.2230769230769231
0.2153846153846154
0.2153846153846154
0.2076923076923077
0.2076923076923077
0.2153846153846154
0.2153846153846154
0.2153846153846154
0.2076923076923077
0.2
0.2
0.2076923076923077
0.2076923076923077
0.2076923076923077
0.2
0.2
0.2
0.2076923076923077
0.2076923076923077
0.2
0.2
0.19230769230769232
0.19230769230769232
0.19230769230769232
0.2
0.2076923076923077
0.2076923076923077
0.2
0.2
0.2
0.2
0.17692307692307693
0.18461538461538463
0.17692307692307693
0.17692307692307693
0.17692307692307693
0.17692307692307693
0.18461538461538463
0.19230769230769232
0.2076923076923077
0.2076923076923077
0.2
0.2076923076923077
0.2153846153846154
0.2
0.19230769230769232
0.2
0.19230769230769232
0.18461538461538463
0.18461538461538463
0.17692307692307693
0.18461538461538463
0.18461538461538463
0.17692307692307693
0.18461538461538463
0.19230769230769232
0.18461538461538463
0.17692307692307693
0.19230769230769232
0.19230769230769232
0.18461538461538463
0.18461538461538463
0.18461538461538463
0.18461538461538463
0.18461538461538463
0.18461538461538463
0.18461538461538463
0.16923076923076924
0.16923076923076924
0.16923076923076924
0.17692307692307693
0.17692307692307693
0.17692307692307693
0.18461538461538463
0.18461538461538463
0.17692307692307693
0.18461538461538463
0.17692307692307693
0.18461538461538463
0.19230769230769232
0.18461538461538463
0.17692307692307693
0.17692307692307693
0.18461538461538463
0.17692307692307693
0.17692307692307693
0.17692307692307693
0.17692307692307693
0.17692307692307693
0.16923076923076924
0.17692307692307693
0.18461538461538463
0.17692307692307693
0.17692307692307693
0.17692307692307693
0.17692307692307693
0.18461538461538463
0.18461538461538463
0.17692307692307693
0.16923076923076924
0.17692307692307693
0.19230769230769232
0.19230769230769232
0.2
0.2
0.19230769230769232
0.2
0.2
0.19230769230769232
0.19230769230769232
0.19230769230769232
0.18461538461538463
0.19230769230769232
0.19230769230769232
0.19230769230769232
0.2076923076923077
0.2076923076923077
0.2076923076923077
0.2153846153846154
0.23076923076923078
0.2230769230769231
0.2230769230769231
0.2230769230769231
0.2153846153846154
0.2076923076923077
0.2230769230769231
0.23076923076923078
0.2230769230769231
0.2230769230769231
0.2153846153846154
0.2153846153846154
0.2230769230769231
0.2153846153846154
0.2230769230769231
0.2230769230769231
0.2230769230769231
0.2230769230769231
0.2230769230769231
0.2230769230769231
0.2230769230769231
0.2230769230769231
0.2153846153846154
0.2230769230769231
0.23076923076923078
0.23076923076923078
0.2230769230769231
0.2230769230769231
0.2153846153846154
0.2153846153846154
0.2230769230769231
0.23076923076923078
0.2230769230769231
0.2153846153846154
0.2230769230769231
0.2230769230769231
0.23076923076923078
0.23076923076923078
0.23846153846153847
0.24615384615384617
0.2692307692307692
0.26153846153846155
0.27692307692307694
0.2923076923076923
0.2923076923076923
0.3
0.3153846153846154
0.3230769230769231
0.3230769230769231
0.3230769230769231
0.33076923076923076
0.34615384615384615
0.34615384615384615
0.33076923076923076
0.33076923076923076
0.3384615384615385
0.3384615384615385
0.33076923076923076
0.3230769230769231
0.3076923076923077
0.3153846153846154
0.3153846153846154
0.2923076923076923
0.2846153846153846
0.27692307692307694
0.25384615384615383
0.24615384615384617
0.25384615384615383
0.24615384615384617
0.24615384615384617
0.24615384615384617
0.24615384615384617
0.23846153846153847
0.23846153846153847
0.23846153846153847
0.2153846153846154
0.2153846153846154
0.2076923076923077
0.19230769230769232
0.19230769230769232
0.19230769230769232
0.18461538461538463
0.17692307692307693
0.18461538461538463
0.19230769230769232
0.18461538461538463
0.18461538461538463
0.17692307692307693
0.17692307692307693
0.17692307692307693
0.17692307692307693
0.18461538461538463
0.18461538461538463
0.17692307692307693
0.17692307692307693
0.18461538461538463
0.17692307692307693
0.17692307692307693
0.16153846153846155
0.16153846153846155
0.16153846153846155
0.16923076923076924
0.16923076923076924
0.16923076923076924
0.16153846153846155
0.16153846153846155
0.16153846153846155
0.16153846153846155
0.16153846153846155
0.15384615384615385
0.15384615384615385
0.15384615384615385
0.14615384615384616
0.13846153846153847
0.14615384615384616
0.15384615384615385
0.15384615384615385
0.14615384615384616
0.13846153846153847
0.13846153846153847
0.13846153846153847
0.13076923076923078
0.12307692307692308
0.11538461538461539
0.1076923076923077
0.1076923076923077
0.1076923076923077
0.1
0.1076923076923077
0.1076923076923077
0.09230769230769231
0.09230769230769231
0.1076923076923077
0.12307692307692308
0.12307692307692308
0.13076923076923078
0.15384615384615385
0.17692307692307693
0.18461538461538463
0.18461538461538463
0.18461538461538463
0.18461538461538463
0.19230769230769232
0.2
0.2076923076923077
0.2153846153846154
0.23846153846153847
0.2692307692307692
0.3
0.33076923076923076
0.36153846153846153
0.3923076923076923
0.4
0.4
0.3923076923076923
0.36923076923076925
0.36153846153846153
0.35384615384615387
0.3384615384615385
0.33076923076923076
0.3230769230769231
0.3153846153846154
0.3
0.3
0.2846153846153846
0.2692307692307692
0.2692307692307692
0.2692307692307692
0.24615384615384617
0.24615384615384617
0.25384615384615383
0.24615384615384617
0.23846153846153847
0.23846153846153847
0.23846153846153847
0.2230769230769231
0.2153846153846154
0.2076923076923077
0.18461538461538463
0.17692307692307693
0.17692307692307693
0.16923076923076924
0.16153846153846155
0.16153846153846155
0.16153846153846155
0.15384615384615385
0.15384615384615385
0.14615384615384616
0.13846153846153847
0.13076923076923078
0.13846153846153847
0.14615384615384616
0.14615384615384616
0.13076923076923078
0.15384615384615385
0.14615384615384616
0.12307692307692308
0.13076923076923078
0.13846153846153847
0.13076923076923078
0.12307692307692308
0.12307692307692308
0.11538461538461539
0.1076923076923077
0.11538461538461539
0.11538461538461539
0.1076923076923077
0.11538461538461539
0.12307692307692308
0.11538461538461539
0.11538461538461539
0.12307692307692308
0.1076923076923077
0.1076923076923077
0.1076923076923077
0.09230769230769231
0.09230769230769231
0.1
0.1
0.09230769230769231
0.1
0.1
0.1
0.1
0.11538461538461539
0.12307692307692308
0.11538461538461539
0.11538461538461539
0.11538461538461539
0.1076923076923077
0.09230769230769231
0.09230769230769231
0.1
0.1
0.1076923076923077
0.1076923076923077
0.1
0.1
0.09230769230769231
0.1
0.1
0.1076923076923077
0.11538461538461539
0.1076923076923077
0.1076923076923077
0.1
0.1
0.1076923076923077
0.1076923076923077
0.1076923076923077
0.1
0.11538461538461539
0.1076923076923077
0.1
0.1076923076923077
0.11538461538461539
0.1076923076923077
0.11538461538461539
0.12307692307692308
0.11538461538461539
0.12307692307692308
0.12307692307692308
0.1076923076923077
0.11538461538461539
0.11538461538461539
0.12307692307692308
0.12307692307692308
0.11538461538461539
0.11538461538461539
0.12307692307692308
0.12307692307692308
0.1076923076923077
0.12307692307692308
0.13076923076923078
0.11538461538461539
0.1076923076923077
0.11538461538461539
0.11538461538461539
0.11538461538461539
0.1
0.1076923076923077
0.11538461538461539
0.12307692307692308
0.11538461538461539
0.1076923076923077
0.1076923076923077
0.11538461538461539
0.11538461538461539
0.11538461538461539
0.11538461538461539
0.1076923076923077
0.11538461538461539
0.1076923076923077
0.1
0.1076923076923077
0.11538461538461539
0.11538461538461539
0.1076923076923077
0.1076923076923077
0.1
0.09230769230769231
0.1076923076923077
0.12307692307692308
0.11538461538461539
0.12307692307692308
0.12307692307692308
0.12307692307692308
0.11538461538461539
0.11538461538461539
0.12307692307692308
0.13076923076923078
0.13076923076923078
0.13846153846153847
0.13846153846153847
0.13846153846153847
0.14615384615384616
0.14615384615384616
0.13846153846153847
0.14615384615384616
0.15384615384615385
0.14615384615384616
0.15384615384615385
0.14615384615384616
0.15384615384615385
0.15384615384615385
0.16923076923076924
0.16923076923076924
0.16153846153846155
0.16923076923076924
0.16923076923076924
0.16923076923076924
0.17692307692307693
0.18461538461538463
0.17692307692307693
0.17692307692307693
0.19230769230769232
0.18461538461538463
0.18461538461538463
0.18461538461538463
0.18461538461538463
0.18461538461538463
0.19230769230769232
0.18461538461538463
0.18461538461538463
0.19230769230769232
0.18461538461538463
0.18461538461538463
0.19230769230769232
0.2
0.2
0.2
0.2
0.2
0.2
0.2
0.19230769230769232
0.19230769230769232
0.19230769230769232
0.19230769230769232
0.19230769230769232
0.18461538461538463
0.18461538461538463
0.19230769230769232
0.19230769230769232
0.19230769230769232
0.2
0.2153846153846154
0.2230769230769231
0.2153846153846154
0.2076923076923077
0.2
0.2076923076923077
0.2153846153846154
0.2230769230769231
0.2153846153846154
0.2076923076923077
0.2153846153846154
0.2
0.2076923076923077
0.2076923076923077
0.2153846153846154
0.2076923076923077
0.2
0.18461538461538463
0.18461538461538463
0.2
0.19230769230769232
0.18461538461538463
0.2
0.2
0.19230769230769232
0.2076923076923077
0.2076923076923077
0.2
0.2076923076923077
0.2153846153846154
0.2153846153846154
0.2153846153846154
0.2153846153846154
0.2153846153846154
0.2076923076923077
0.2153846153846154
0.2153846153846154
0.2076923076923077
0.2076923076923077
0.2
0.2
0.2
0.2076923076923077
0.2076923076923077
0.2
0.2153846153846154
0.2076923076923077
0.2076923076923077
0.2153846153846154
0.2076923076923077
0.2076923076923077
0.2153846153846154
0.2153846153846154
0.2230769230769231
0.2153846153846154
0.2153846153846154
0.2076923076923077
0.2076923076923077
0.2076923076923077
0.19230769230769232
0.2
0.19230769230769232
0.2
0.19230769230769232
0.19230769230769232
0.19230769230769232
0.19230769230769232
0.19230769230769232
0.19230769230769232
0.19230769230769232
0.2076923076923077
0.2076923076923077
0.2076923076923077
0.2153846153846154
0.2
0.19230769230769232
0.2076923076923077
0.2076923076923077
0.2076923076923077
0.2076923076923077
0.2
0.18461538461538463
0.18461538461538463
0.18461538461538463
0.2
0.2076923076923077
0.2230769230769231
0.2230769230769231
0.2230769230769231
0.2230769230769231
0.23076923076923078
0.2230769230769231
0.23076923076923078
0.23076923076923078
0.2230769230769231
0.2230769230769231
0.23076923076923078
0.2230769230769231
0.2153846153846154
0.2230769230769231
0.2153846153846154
0.2076923076923077
0.2230769230769231
0.23076923076923078
0.2153846153846154
0.2076923076923077
0.2153846153846154
0.2153846153846154
0.2153846153846154
0.2153846153846154
0.2153846153846154
0.2230769230769231
0.2153846153846154
0.2153846153846154
0.2153846153846154
0.2153846153846154
0.2230769230769231
0.2230769230769231
0.2153846153846154
0.2076923076923077
0.2230769230769231
0.2230769230769231
0.2076923076923077
0.2076923076923077
0.2230769230769231
0.2076923076923077
0.2153846153846154
0.2153846153846154
0.2076923076923077
0.2153846153846154
0.2230769230769231
0.2230769230769231
0.2230769230769231
0.23846153846153847
0.25384615384615383
0.26153846153846155
0.27692307692307694
0.3076923076923077
0.3153846153846154
0.3230769230769231
0.3230769230769231
0.3230769230769231
0.34615384615384615
0.35384615384615387
0.36153846153846153
0.3769230769230769
0.4
0.4076923076923077
0.4153846153846154
0.43846153846153846
0.46923076923076923
0.47692307692307695
0.49230769230769234
0.5
0.5153846153846153
0.5307692307692308
0.5461538461538461
0.5538461538461539
0.5692307692307692
0.5769230769230769
0.5846153846153846
0.5846153846153846
0.5923076923076923
0.6076923076923076
0.6
0.6076923076923076
0.6076923076923076
0.6230769230769231
0.6307692307692307
0.6384615384615384
0.6538461538461539
0.6538461538461539
0.6615384615384615
0.6692307692307692
0.676923076923077
0.6846153846153846
0.676923076923077
0.676923076923077
0.6846153846153846
0.6692307692307692
0.6538461538461539
0.6538461538461539
0.6461538461538462
0.6230769230769231
0.6153846153846154
0.6076923076923076
0.5923076923076923
0.5769230769230769
0.5615384615384615
0.5461538461538461
0.5384615384615384
0.5307692307692308
0.5307692307692308
0.5230769230769231
0.5076923076923077
0.49230769230769234
0.49230769230769234
0.49230769230769234
0.4846153846153846
0.4846153846153846
0.4846153846153846
0.47692307692307695
0.46923076923076923
0.46923076923076923
0.46153846153846156
0.46153846153846156
0.4461538461538462
0.4307692307692308
0.4307692307692308
0.4230769230769231
0.4153846153846154
0.4
0.3923076923076923
0.35384615384615387
0.3230769230769231
0.3
0.2846153846153846
0.2692307692307692
0.25384615384615383
0.2230769230769231
0.2153846153846154
0.19230769230769232
0.17692307692307693
0.16153846153846155
0.14615384615384616
0.13846153846153847
0.13846153846153847
0.14615384615384616
0.13846153846153847
0.13076923076923078
0.12307692307692308
0.1076923076923077
0.1076923076923077
0.11538461538461539
0.1
0.1
0.1076923076923077
0.1076923076923077
0.1
0.09230769230769231
0.09230769230769231
0.1
0.09230769230769231
0.09230769230769231
0.09230769230769231
0.08461538461538462
0.07692307692307693
0.07692307692307693
0.06923076923076923
0.06923076923076923
0.07692307692307693
0.06923076923076923
0.06153846153846154
0.06153846153846154
0.06153846153846154
0.05384615384615385
0.046153846153846156
0.046153846153846156
0.038461538461538464
0.046153846153846156
0.06153846153846154
0.046153846153846156
0.03076923076923077
0.038461538461538464
0.03076923076923077
0.023076923076923078
0.023076923076923078
0.023076923076923078
0.023076923076923078
0.023076923076923078
0.007692307692307693
0.015384615384615385
0.015384615384615385
0.007692307692307693
0.0
0.007692307692307693
0.007692307692307693
-0.007692307692307693
-0.007692307692307693
0.0
-0.015384615384615385
-0.023076923076923078
-0.007692307692307693
-0.007692307692307693
-0.023076923076923078
-0.015384615384615385
-0.023076923076923078
-0.03076923076923077
-0.015384615384615385
-0.015384615384615385
-0.038461538461538464
-0.023076923076923078
-0.023076923076923078
-0.046153846153846156
-0.03076923076923077
-0.015384615384615385
-0.03076923076923077
-0.038461538461538464
-0.03076923076923077
-0.046153846153846156
-0.046153846153846156
-0.05384615384615385
-0.06153846153846154
-0.06153846153846154
-0.06153846153846154
-0.06153846153846154
-0.05384615384615385
-0.05384615384615385
-0.06923076923076923
-0.06153846153846154
-0.06153846153846154
-0.05384615384615385
-0.07692307692307693
-0.06153846153846154
-0.05384615384615385
-0.06153846153846154
-0.06153846153846154
-0.06153846153846154
-0.06923076923076923
-0.06923076923076923
-0.06153846153846154
-0.06153846153846154
-0.07692307692307693
-0.06153846153846154
-0.05384615384615385
-0.05384615384615385
-0.05384615384615385
-0.05384615384615385
-0.05384615384615385
-0.046153846153846156
-0.038461538461538464
-0.03076923076923077
-0.023076923076923078
-0.038461538461538464
-0.038461538461538464
-0.03076923076923077
-0.023076923076923078
-0.023076923076923078
-0.03076923076923077
-0.03076923076923077
-0.038461538461538464
-0.03076923076923077
-0.015384615384615385
-0.015384615384615385
-0.015384615384615385
-0.015384615384615385
0.0
0.0
0.0
0.015384615384615385
0.007692307692307693
0.007692307692307693
0.023076923076923078
0.015384615384615385
0.023076923076923078
0.038461538461538464
0.038461538461538464
0.023076923076923078
0.03076923076923077
0.046153846153846156
0.046153846153846156
0.038461538461538464
0.046153846153846156
0.05384615384615385
0.038461538461538464
0.038461538461538464
0.05384615384615385
0.05384615384615385
0.046153846153846156
0.046153846153846156
0.05384615384615385
0.06153846153846154
0.07692307692307693
0.08461538461538462
0.07692307692307693
0.07692307692307693
0.09230769230769231
0.1
0.1076923076923077
0.1076923076923077
0.1076923076923077
0.1076923076923077
0.11538461538461539
0.12307692307692308
0.13076923076923078
0.13846153846153847
0.13846153846153847
0.14615384615384616
0.16153846153846155
0.16153846153846155
0.16153846153846155
0.17692307692307693
0.17692307692307693
0.15384615384615385
0.16923076923076924
0.19230769230769232
0.19230769230769232
0.19230769230769232
0.19230769230769232
0.18461538461538463
0.18461538461538463
0.18461538461538463
0.19230769230769232
0.19230769230769232
0.18461538461538463
0.18461538461538463
0.17692307692307693
0.17692307692307693
0.16923076923076924
0.16153846153846155
0.16923076923076924
0.15384615384615385
0.15384615384615385
0.15384615384615385
0.16153846153846155
0.16153846153846155
0.16153846153846155
0.17692307692307693
0.19230769230769232
0.18461538461538463
0.17692307692307693
0.18461538461538463
0.18461538461538463
0.17692307692307693
0.16923076923076924
0.19230769230769232
0.19230769230769232
0.19230769230769232
0.18461538461538463
0.18461538461538463
0.18461538461538463
0.18461538461538463
0.2
0.2
0.18461538461538463
0.2
0.2076923076923077
0.2076923076923077
0.2076923076923077
0.2
0.2076923076923077
0.2
0.2
0.2
0.2
0.2
0.2
0.18461538461538463
0.17692307692307693
0.18461538461538463
0.19230769230769232
0.19230769230769232
0.2
0.2
0.2
0.2
0.19230769230769232
0.2
0.2076923076923077
0.2
0.2
0.2
0.2
0.2076923076923077
0.2076923076923077
0.2076923076923077
0.2076923076923077
0.2153846153846154
0.2153846153846154
0.2076923076923077
0.2
0.18461538461538463
0.16153846153846155
0.15384615384615385
0.13846153846153847
0.13076923076923078
0.1
0.08461538461538462
0.06923076923076923
0.06153846153846154
0.046153846153846156
0.015384615384615385
0.0
-0.015384615384615385
-0.038461538461538464
-0.06153846153846154
-0.08461538461538462
-0.09230769230769231
-0.1076923076923077
-0.13076923076923078
-0.14615384615384616
-0.16153846153846155
-0.18461538461538463
-0.2076923076923077
-0.23846153846153847
-0.25384615384615383
-0.27692307692307694
-0.3076923076923077
-0.3153846153846154
-0.3153846153846154
-0.3076923076923077
-0.3
-0.3
-0.3
-0.2923076923076923
-0.3
-0.2923076923076923
-0.2846153846153846
-0.27692307692307694
-0.2692307692307692
-0.27692307692307694
-0.2692307692307692
-0.26153846153846155
-0.26153846153846155
-0.25384615384615383
-0.25384615384615383
-0.25384615384615383
-0.26153846153846155
-0.27692307692307694
-0.2846153846153846
-0.27692307692307694
-0.2692307692307692
-0.24615384615384617
-0.24615384615384617
-0.23846153846153847
-0.23076923076923078
-0.2153846153846154
-0.2076923076923077
-0.2153846153846154
-0.2076923076923077
-0.2153846153846154
-0.2230769230769231
-0.2230769230769231
-0.2153846153846154
-0.2153846153846154
-0.2230769230769231
-0.2153846153846154
-0.2076923076923077
-0.2
-0.2076923076923077
-0.2076923076923077
-0.18461538461538463
-0.16923076923076924
-0.13846153846153847
-0.1076923076923077
-0.06923076923076923
-0.046153846153846156
-0.007692307692307693
0.03076923076923077
0.038461538461538464
0.046153846153846156
0.046153846153846156
0.05384615384615385
0.06923076923076923
0.07692307692307693
0.07692307692307693
0.09230769230769231
0.11538461538461539
0.13846153846153847
0.16153846153846155
0.16923076923076924
0.18461538461538463
0.2076923076923077
0.23076923076923078
0.23846153846153847
0.23846153846153847
0.24615384615384617
0.25384615384615383
0.2692307692307692
0.27692307692307694
0.2846153846153846
0.27692307692307694
0.2692307692307692
0.2692307692307692
0.27692307692307694
0.26153846153846155
0.26153846153846155
0.27692307692307694
0.26153846153846155
0.26153846153846155
0.2692307692307692
0.2692307692307692
0.2692307692307692
0.27692307692307694
0.2692307692307692
0.2692307692307692
0.27692307692307694
0.2846153846153846
0.2692307692307692
0.27692307692307694
0.26153846153846155
0.2692307692307692
0.2692307692307692
0.27692307692307694
0.2846153846153846
0.2846153846153846
0.2846153846153846
0.2846153846153846
0.2846153846153846
0.2923076923076923
0.3076923076923077
0.3230769230769231
0.3230769230769231
0.3153846153846154
0.33076923076923076
0.34615384615384615
0.35384615384615387
0.36923076923076925
0.36923076923076925
0.36923076923076925
0.38461538461538464
0.3923076923076923
0.4
0.4230769230769231
0.4153846153846154
0.4
0.4153846153846154
0.4230769230769231
0.4076923076923077
0.4076923076923077
0.4230769230769231
0.43846153846153846
0.43846153846153846
0.45384615384615384
0.45384615384615384
0.45384615384615384
0.46153846153846156
0.46153846153846156
0.4846153846153846
0.4846153846153846
0.46923076923076923
0.4846153846153846
0.4846153846153846
0.4846153846153846
0.4846153846153846
0.5
0.5
0.5076923076923077
0.5
0.4846153846153846
0.49230769230769234
0.49230769230769234
0.4846153846153846
0.4846153846153846
0.4846153846153846
0.4846153846153846
0.49230769230769234
0.4846153846153846
0.4846153846153846
0.4846153846153846
0.4846153846153846
0.4846153846153846
0.49230769230769234
0.5
0.5076923076923077
0.5076923076923077
0.5
0.5076923076923077
0.5153846153846153
0.5
0.49230769230769234
0.5076923076923077
0.5
0.49230769230769234
0.4846153846153846
0.4846153846153846
0.4846153846153846
0.47692307692307695
0.46923076923076923
0.47692307692307695
0.4846153846153846
0.46923076923076923
0.46923076923076923
0.46153846153846156
0.46153846153846156
0.46153846153846156
0.4461538461538462
0.45384615384615384
0.46153846153846156
0.43846153846153846
0.4307692307692308
0.43846153846153846
0.4307692307692308
0.4153846153846154
0.4230769230769231
0.4153846153846154
0.38461538461538464
0.38461538461538464
0.3923076923076923
0.38461538461538464
0.36923076923076925
0.3769230769230769
0.36153846153846153
0.35384615384615387
0.35384615384615387
0.36153846153846153
0.36153846153846153
0.34615384615384615
0.34615384615384615
0.36153846153846153
0.35384615384615387
0.33076923076923076
0.3384615384615385
0.34615384615384615
0.33076923076923076
0.3230769230769231
0.3230769230769231
0.3230769230769231
0.3230769230769231
0.3076923076923077
0.3076923076923077
0.3
0.3076923076923077
0.3076923076923077
0.3076923076923077
0.3
0.3
0.3
0.2923076923076923
0.2923076923076923
0.2923076923076923
0.2846153846153846
0.2846153846153846
0.2846153846153846
0.27692307692307694
0.27692307692307694
0.27692307692307694
0.26153846153846155
0.26153846153846155
0.2692307692307692
0.26153846153846155
0.26153846153846155
0.2692307692307692
0.27692307692307694
0.25384615384615383
0.25384615384615383
0.25384615384615383
0.24615384615384617
0.24615384615384617
0.26153846153846155
0.26153846153846155
0.25384615384615383
0.26153846153846155
0.26153846153846155
0.25384615384615383
0.26153846153846155
0.25384615384615383
0.24615384615384617
0.24615384615384617
0.23076923076923078
0.24615384615384617
0.25384615384615383
0.25384615384615383
0.24615384615384617
0.25384615384615383
0.24615384615384617
0.24615384615384617
0.23846153846153847
0.23076923076923078
0.23076923076923078
0.24615384615384617
0.24615384615384617
0.24615384615384617
0.25384615384615383
0.23846153846153847
0.25384615384615383
0.25384615384615383
0.24615384615384617
0.26153846153846155
0.25384615384615383
0.23846153846153847
0.24615384615384617
0.25384615384615383
0.25384615384615383
0.24615384615384617
0.25384615384615383
0.24615384615384617
0.24615384615384617
0.24615384615384617
0.24615384615384617
0.23846153846153847
0.25384615384615383
0.23846153846153847
0.23846153846153847
0.23846153846153847
0.24615384615384617
0.24615384615384617
0.26153846153846155
0.26153846153846155
0.25384615384615383
0.25384615384615383
0.26153846153846155
0.25384615384615383
0.24615384615384617
0.25384615384615383
0.25384615384615383
0.24615384615384617
0.24615384615384617
0.24615384615384617
0.24615384615384617
0.25384615384615383
0.24615384615384617
0.2692307692307692
0.26153846153846155
0.24615384615384617
0.25384615384615383
0.24615384615384617
0.23846153846153847
0.24615384615384617
0.25384615384615383
0.24615384615384617
0.24615384615384617
0.24615384615384617
0.25384615384615383
0.25384615384615383
0.24615384615384617
0.24615384615384617
0.23846153846153847
0.23076923076923078
0.23076923076923078
0.23076923076923078
0.23076923076923078
0.23076923076923078
0.2153846153846154
0.23076923076923078
0.23846153846153847
0.23846153846153847
0.23076923076923078
0.23846153846153847
0.23846153846153847
0.2230769230769231
0.23846153846153847
0.23076923076923078
0.2230769230769231
0.2230769230769231
0.23076923076923078
0.2230769230769231
0.2230769230769231
0.23846153846153847
0.24615384615384617
0.23846153846153847
0.24615384615384617
0.24615384615384617
0.23846153846153847
0.23076923076923078
0.23076923076923078
0.23076923076923078
0.23076923076923078
0.23076923076923078
0.23076923076923078
0.23076923076923078
0.23076923076923078
0.23076923076923078
0.24615384615384617
0.24615384615384617
0.23846153846153847
0.23846153846153847
0.23076923076923078
0.2230769230769231
0.23076923076923078
0.2230769230769231
0.2230769230769231
0.2230769230769231
0.2230769230769231
0.2230769230769231
0.2153846153846154
0.2230769230769231
0.2230769230769231
0.2230769230769231
0.23076923076923078
0.2230769230769231
0.2230769230769231
0.23076923076923078
0.2230769230769231
0.2230769230769231
0.23076923076923078
0.2230769230769231
0.2153846153846154
0.2076923076923077
0.2153846153846154
0.2153846153846154
0.2076923076923077
0.2153846153846154
0.2153846153846154
0.2153846153846154
0.2076923076923077
0.2153846153846154
0.2153846153846154
0.2153846153846154
0.2153846153846154
0.2153846153846154
0.2153846153846154
0.2076923076923077
0.2076923076923077
0.2076923076923077
0.2153846153846154
0.2153846153846154
0.2076923076923077
0.2076923076923077
0.2153846153846154
0.2230769230769231
0.2230769230769231
0.2153846153846154
0.2076923076923077
0.2
0.2076923076923077
0.2153846153846154
0.2076923076923077
0.2
0.2153846153846154
0.2153846153846154
0.2076923076923077
0.2153846153846154
0.2230769230769231
0.2153846153846154
0.2153846153846154
0.2153846153846154
0.2153846153846154
0.2153846153846154
0.2153846153846154
0.2153846153846154
0.2076923076923077
0.2076923076923077
0.2076923076923077
0.2153846153846154
0.2153846153846154
0.2076923076923077
0.2153846153846154
0.2153846153846154
0.2153846153846154
0.2076923076923077
0.2153846153846154
0.2076923076923077
0.2153846153846154
0.2153846153846154
0.2153846153846154
0.2230769230769231
0.2230769230769231
0.2230769230769231
0.2153846153846154
0.2153846153846154
0.2076923076923077
0.2153846153846154
0.2153846153846154
0.2076923076923077
0.2076923076923077
0.2153846153846154
0.2076923076923077
0.2076923076923077
0.2076923076923077
0.2076923076923077
0.2076923076923077
0.2076923076923077
0.2076923076923077
0.2076923076923077
0.2076923076923077
0.2076923076923077
0.2076923076923077
0.2153846153846154
0.2076923076923077
0.2153846153846154
0.2153846153846154
0.2076923076923077
0.2153846153846154
0.2153846153846154
0.2153846153846154
0.2230769230769231
0.2230769230769231
0.2153846153846154
0.2230769230769231
0.23076923076923078
0.2230769230769231
0.23076923076923078
0.23076923076923078
0.2230769230769231
0.23076923076923078
0.23846153846153847
0.23076923076923078
0.23076923076923078
0.23846153846153847
0.23076923076923078
0.23076923076923078
0.23846153846153847
0.2153846153846154
0.2230769230769231
0.2153846153846154
0.2153846153846154
0.2153846153846154
0.2153846153846154
0.2153846153846154
0.2230769230769231
0.23076923076923078
0.2230769230769231
0.2230769230769231
0.23846153846153847
0.23846153846153847
0.2230769230769231
0.2230769230769231
0.2076923076923077
0.2153846153846154
0.2153846153846154
0.2153846153846154
0.2076923076923077
0.2076923076923077
0.2076923076923077
0.2153846153846154
0.2230769230769231
0.2230769230769231
0.2230769230769231
0.2153846153846154
0.2076923076923077
0.2
0.19230769230769232
0.2
0.19230769230769232
0.19230769230769232
0.19230769230769232
0.2
0.19230769230769232
0.2
0.2
0.2
0.18461538461538463
0.18461538461538463
0.19230769230769232
0.18461538461538463
0.18461538461538463
0.19230769230769232
0.18461538461538463
0.18461538461538463
0.19230769230769232
0.19230769230769232
0.19230769230769232
0.18461538461538463
0.18461538461538463
0.19230769230769232
0.2
0.19230769230769232
0.18461538461538463
0.18461538461538463
0.18461538461538463
0.18461538461538463
0.19230769230769232
0.19230769230769232
0.18461538461538463
0.19230769230769232
0.18461538461538463
0.18461538461538463
0.18461538461538463
0.19230769230769232
0.18461538461538463
0.2
0.2
0.19230769230769232
0.19230769230769232
0.2
0.2153846153846154
0.2230769230769231
0.2230769230769231
0.2153846153846154
0.2230769230769231
0.2076923076923077
0.2
0.19230769230769232
0.19230769230769232
0.19230769230769232
0.19230769230769232
0.2
0.2
0.19230769230769232
0.2
0.2
0.2076923076923077
0.2153846153846154
0.2230769230769231
0.2076923076923077
0.2076923076923077
0.2076923076923077
0.2076923076923077
0.2076923076923077
0.2153846153846154
0.2
0.2
0.2076923076923077
0.2076923076923077
0.2076923076923077
0.2076923076923077
0.2076923076923077
0.2076923076923077
0.2076923076923077
0.2076923076923077
0.2076923076923077
0.2153846153846154
0.2076923076923077
0.2
0.2
0.2
0.2
0.2076923076923077
0.2153846153846154
0.2076923076923077
0.2
0.2
0.2
0.2076923076923077
0.2
0.2076923076923077
0.2076923076923077
0.2076923076923077
0.2153846153846154
0.23076923076923078
0.23846153846153847
0.23846153846153847
0.24615384615384617
0.26153846153846155
0.2692307692307692
0.26153846153846155
0.27692307692307694
0.27692307692307694
0.2923076923076923
0.3
0.3076923076923077
0.3153846153846154
0.3230769230769231
0.3153846153846154
0.3153846153846154
0.3153846153846154
0.3153846153846154
0.3153846153846154
0.2923076923076923
0.3076923076923077
0.3
0.2923076923076923
0.2846153846153846
0.2846153846153846
0.27692307692307694
0.25384615384615383
0.24615384615384617
0.24615384615384617
0.24615384615384617
0.23846153846153847
0.23846153846153847
0.23846153846153847
0.23076923076923078
0.23076923076923078
0.23076923076923078
0.23076923076923078
0.2153846153846154
0.2153846153846154
0.2
0.2076923076923077
0.2
0.2
0.2
0.19230769230769232
0.2076923076923077
0.2076923076923077
0.2076923076923077
0.2076923076923077
0.2076923076923077
0.2076923076923077
0.2
0.19230769230769232
0.2
0.2
0.19230769230769232
0.18461538461538463
0.18461538461538463
0.19230769230769232
0.19230769230769232
0.18461538461538463
0.17692307692307693
0.18461538461538463
0.16923076923076924
0.16923076923076924
0.16923076923076924
0.18461538461538463
0.17692307692307693
0.16923076923076924
0.16923076923076924
0.16923076923076924
0.16923076923076924
0.16923076923076924
0.16923076923076924
0.15384615384615385
0.16923076923076924
0.16153846153846155
0.14615384615384616
0.14615384615384616
0.15384615384615385
0.12307692307692308
0.13076923076923078
0.14615384615384616
0.12307692307692308
0.11538461538461539
0.13076923076923078
0.11538461538461539
0.11538461538461539
0.11538461538461539
0.1076923076923077
0.1076923076923077
0.1
0.1076923076923077
0.12307692307692308
0.13846153846153847
0.15384615384615385
0.15384615384615385
0.16153846153846155
0.16923076923076924
0.17692307692307693
0.17692307692307693
0.19230769230769232
0.2
0.19230769230769232
0.2
0.2
0.2230769230769231
0.23076923076923078
0.24615384615384617
0.2692307692307692
0.3
0.3230769230769231
0.34615384615384615
0.38461538461538464
0.4076923076923077
0.4
0.38461538461538464
0.3769230769230769
0.36923076923076925
0.35384615384615387
0.3384615384615385
0.33076923076923076
0.3153846153846154
0.3153846153846154
0.3076923076923077
0.3
0.27692307692307694
0.26153846153846155
0.25384615384615383
0.26153846153846155
0.25384615384615383
0.24615384615384617
0.24615384615384617
0.23846153846153847
0.23076923076923078
0.23076923076923078
0.2230769230769231
0.2076923076923077
0.2
0.18461538461538463
0.17692307692307693
0.16923076923076924
0.16923076923076924
0.15384615384615385
0.15384615384615385
0.15384615384615385
0.15384615384615385
0.14615384615384616
0.14615384615384616
0.15384615384615385
0.15384615384615385
0.14615384615384616
0.14615384615384616
0.15384615384615385
0.13846153846153847
0.13846153846153847
0.14615384615384616
0.14615384615384616
0.13846153846153847
0.15384615384615385
0.13076923076923078
0.13846153846153847
0.13846153846153847
0.13076923076923078
0.13076923076923078
0.13846153846153847
0.13846153846153847
0.12307692307692308
0.13076923076923078
0.13076923076923078
0.11538461538461539
0.1076923076923077
0.12307692307692308
0.13076923076923078
0.12307692307692308
0.11538461538461539
0.1076923076923077
0.11538461538461539
0.1
0.1
0.1076923076923077
0.12307692307692308
0.12307692307692308
0.11538461538461539
0.11538461538461539
0.1076923076923077
0.11538461538461539
0.11538461538461539
0.1
0.09230769230769231
0.1076923076923077
0.1
0.1
0.09230769230769231
0.1
0.08461538461538462
0.08461538461538462
0.1
0.1
0.1076923076923077
0.11538461538461539
0.1076923076923077
0.1
0.1
0.1076923076923077
0.1
0.1076923076923077
0.11538461538461539
0.11538461538461539
0.1076923076923077
0.1076923076923077
0.1
0.11538461538461539
0.11538461538461539
0.1076923076923077
0.1
0.11538461538461539
0.1076923076923077
0.1
0.1
0.1
0.1
0.11538461538461539
0.11538461538461539
0.1
0.1
0.1
0.1
0.1076923076923077
0.1
0.1
0.1076923076923077
0.1
0.1076923076923077
0.1076923076923077
0.1076923076923077
0.1
0.1076923076923077
0.1076923076923077
0.09230769230769231
0.1
0.1
0.09230769230769231
0.1
0.1076923076923077
0.1
0.1
0.1
0.09230769230769231
0.09230769230769231
0.1
0.1
0.1
0.1
0.1
0.09230769230769231
0.1076923076923077
0.1
0.1
0.1
0.1076923076923077
0.1076923076923077
0.1076923076923077
0.09230769230769231
0.1
0.1076923076923077
0.1
0.1076923076923077
0.12307692307692308
0.12307692307692308
0.1076923076923077
0.11538461538461539
0.12307692307692308
0.11538461538461539
0.12307692307692308
0.13846153846153847
0.13846153846153847
0.13846153846153847
0.14615384615384616
0.15384615384615385
0.14615384615384616
0.15384615384615385
0.14615384615384616
0.15384615384615385
0.15384615384615385
0.16153846153846155
0.16153846153846155
0.15384615384615385
0.16153846153846155
0.16923076923076924
0.16153846153846155
0.16153846153846155
0.16923076923076924
0.17692307692307693
0.17692307692307693
0.16923076923076924
0.17692307692307693
0.18461538461538463
0.2
0.19230769230769232
0.2
0.2
0.19230769230769232
0.2076923076923077
0.2076923076923077
0.2076923076923077
0.2153846153846154
0.2076923076923077
0.2
0.2076923076923077
0.2153846153846154
0.2230769230769231
0.23076923076923078
0.2230769230769231
0.2230769230769231
0.2230769230769231
0.23846153846153847
0.23076923076923078
0.23846153846153847
0.23846153846153847
0.23076923076923078
0.2230769230769231
0.2230769230769231
0.2230769230769231
0.23076923076923078
0.23076923076923078
0.2230769230769231
0.23846153846153847
0.23846153846153847
0.24615384615384617
0.23846153846153847
0.23846153846153847
0.23846153846153847
0.24615384615384617
0.24615384615384617
0.24615384615384617
0.23846153846153847
0.23076923076923078
0.23076923076923078
0.23846153846153847
0.2230769230769231
0.2153846153846154
0.2153846153846154
0.2076923076923077
0.18461538461538463
0.17692307692307693
0.18461538461538463
0.19230769230769232
0.17692307692307693
0.17692307692307693
0.19230769230769232
0.2
0.2
0.2076923076923077
0.2076923076923077
0.2153846153846154
0.2153846153846154
0.2076923076923077
0.2153846153846154
0.2076923076923077
0.2076923076923077
0.2076923076923077
0.2
0.2076923076923077
0.2076923076923077
0.2
0.19230769230769232
0.18461538461538463
0.2
0.2
0.18461538461538463
0.19230769230769232
0.2
0.2
0.2
0.2076923076923077
0.2076923076923077
0.2
0.2076923076923077
0.2230769230769231
0.2153846153846154
0.2153846153846154
0.2230769230769231
0.2230769230769231
0.2230769230769231
0.2230769230769231
0.2153846153846154
0.2076923076923077
0.2
0.19230769230769232
0.19230769230769232
0.19230769230769232
0.2
0.19230769230769232
0.18461538461538463
0.19230769230769232
0.2
0.2
0.19230769230769232
0.2153846153846154
0.2230769230769231
0.23076923076923078
0.2230769230769231
0.2076923076923077
0.2076923076923077
0.2153846153846154
0.2076923076923077
0.2
0.2
0.2
0.19230769230769232
0.19230769230769232
0.2
0.2
0.2153846153846154
0.2153846153846154
0.2
0.2076923076923077
0.2076923076923077
0.2
0.2076923076923077
0.2076923076923077
0.2
0.19230769230769232
0.2
0.19230769230769232
0.18461538461538463
0.18461538461538463
0.19230769230769232
0.19230769230769232
0.18461538461538463
0.19230769230769232
0.19230769230769232
0.18461538461538463
0.19230769230769232
0.2
0.19230769230769232
0.2
0.2
0.2
0.2
0.2076923076923077
0.2076923076923077
0.2076923076923077
0.2
0.2153846153846154
0.2153846153846154
0.2
0.2076923076923077
0.2153846153846154
0.2153846153846154
0.2076923076923077
0.2
0.2
0.2
0.19230769230769232
0.2
0.2
0.2
0.2
0.2076923076923077
0.2230769230769231
0.24615384615384617
0.26153846153846155
0.2692307692307692
0.2923076923076923
0.3
0.3153846153846154
0.3230769230769231
0.3230769230769231
0.3384615384615385
0.35384615384615387
0.35384615384615387
0.36923076923076925
0.38461538461538464
0.3923076923076923
0.4076923076923077
0.4307692307692308
0.45384615384615384
0.46923076923076923
0.47692307692307695
0.49230769230769234
0.5076923076923077
0.5230769230769231
0.5384615384615384
0.5538461538461539
0.5615384615384615
0.5615384615384615
0.5769230769230769
0.5846153846153846
0.5846153846153846
0.5846153846153846
0.5923076923076923
0.6
0.6153846153846154
0.6153846153846154
0.6307692307692307
0.6384615384615384
0.6384615384615384
0.6384615384615384
0.6461538461538462
0.6615384615384615
0.6615384615384615
0.676923076923077
0.6846153846153846
0.6692307692307692
0.6692307692307692
0.6692307692307692
0.6692307692307692
0.6615384615384615
0.6538461538461539
0.6307692307692307
0.6153846153846154
0.6
0.5846153846153846
0.5692307692307692
0.5615384615384615
0.5538461538461539
0.5461538461538461
0.5461538461538461
0.5384615384615384
0.5153846153846153
0.5076923076923077
0.5076923076923077
0.5
0.5
0.5
0.49230769230769234
0.4846153846153846
0.4846153846153846
0.4846153846153846
0.4846153846153846
0.47692307692307695
0.47692307692307695
0.45384615384615384
0.4461538461538462
0.45384615384615384
0.4461538461538462
0.4461538461538462
0.4307692307692308
0.3923076923076923
0.36923076923076925
0.35384615384615387
0.3230769230769231
0.3
0.2923076923076923
0.27692307692307694
0.24615384615384617
0.23076923076923078
0.2076923076923077
0.19230769230769232
0.19230769230769232
0.16923076923076924
0.15384615384615385
0.15384615384615385
0.15384615384615385
0.13846153846153847
0.12307692307692308
0.13076923076923078
0.13076923076923078
0.13076923076923078
0.12307692307692308
0.13076923076923078
0.12307692307692308
0.12307692307692308
0.1076923076923077
0.1076923076923077
0.1076923076923077
0.1
0.1
0.09230769230769231
0.09230769230769231
0.09230769230769231
0.08461538461538462
0.07692307692307693
0.06923076923076923
0.07692307692307693
0.07692307692307693
0.06923076923076923
0.06153846153846154
0.06153846153846154
0.06153846153846154
0.06153846153846154
0.06153846153846154
0.046153846153846156
0.038461538461538464
0.03076923076923077
0.038461538461538464
0.038461538461538464
0.03076923076923077
0.023076923076923078
0.023076923076923078
0.023076923076923078
0.023076923076923078
0.007692307692307693
0.015384615384615385
0.023076923076923078
0.023076923076923078
0.0
0.007692307692307693
0.007692307692307693
0.007692307692307693
0.007692307692307693
0.007692307692307693
0.007692307692307693
0.0
-0.007692307692307693
-0.015384615384615385
-0.023076923076923078
-0.023076923076923078
-0.023076923076923078
-0.023076923076923078
-0.03076923076923077
-0.03076923076923077
-0.03076923076923077
-0.038461538461538464
-0.038461538461538464
-0.038461538461538464
-0.03076923076923077
-0.03076923076923077
-0.038461538461538464
-0.038461538461538464
-0.046153846153846156
-0.038461538461538464
-0.046153846153846156
-0.046153846153846156
-0.05384615384615385
-0.05384615384615385
-0.046153846153846156
-0.05384615384615385
-0.05384615384615385
-0.05384615384615385
-0.06923076923076923
-0.06923076923076923
-0.05384615384615385
-0.06153846153846154
-0.06153846153846154
-0.06153846153846154
-0.05384615384615385
-0.06153846153846154
-0.06153846153846154
-0.06153846153846154
-0.06153846153846154
-0.06153846153846154
-0.06923076923076923
-0.06923076923076923
-0.06923076923076923
-0.06923076923076923
-0.06923076923076923
-0.06923076923076923
-0.06923076923076923
-0.06923076923076923
-0.06923076923076923
-0.06153846153846154
-0.06153846153846154
-0.06153846153846154
-0.06153846153846154
-0.05384615384615385
-0.05384615384615385
-0.038461538461538464
-0.046153846153846156
-0.05384615384615385
-0.046153846153846156
-0.05384615384615385
-0.05384615384615385
-0.046153846153846156
-0.046153846153846156
-0.05384615384615385
-0.046153846153846156
-0.038461538461538464
-0.038461538461538464
-0.038461538461538464
-0.038461538461538464
-0.038461538461538464
-0.023076923076923078
-0.023076923076923078
-0.015384615384615385
0.0
0.007692307692307693
0.0
0.007692307692307693
0.007692307692307693
0.007692307692307693
0.023076923076923078
0.03076923076923077
0.023076923076923078
0.03076923076923077
0.038461538461538464
0.038461538461538464
0.03076923076923077
0.046153846153846156
0.046153846153846156
0.046153846153846156
0.038461538461538464
0.046153846153846156
0.05384615384615385
0.05384615384615385
0.05384615384615385
0.06153846153846154
0.06153846153846154
0.07692307692307693
0.08461538461538462
0.08461538461538462
0.09230769230769231
0.09230769230769231
0.09230769230769231
0.1076923076923077
0.11538461538461539
0.11538461538461539
0.11538461538461539
0.11538461538461539
0.12307692307692308
0.14615384615384616
0.15384615384615385
0.16153846153846155
0.16923076923076924
0.17692307692307693
0.17692307692307693
0.17692307692307693
0.17692307692307693
0.18461538461538463
0.19230769230769232
0.19230769230769232
0.18461538461538463
0.18461538461538463
0.19230769230769232
0.19230769230769232
0.2
0.19230769230769232
0.19230769230769232
0.19230769230769232
0.19230769230769232
0.18461538461538463
0.19230769230769232
0.18461538461538463
0.18461538461538463
0.17692307692307693
0.16923076923076924
0.16923076923076924
0.16153846153846155
0.16153846153846155
0.16923076923076924
0.16923076923076924
0.17692307692307693
0.17692307692307693
0.17692307692307693
0.17692307692307693
0.18461538461538463
0.19230769230769232
0.18461538461538463
0.18461538461538463
0.17692307692307693
0.18461538461538463
0.19230769230769232
0.19230769230769232
0.19230769230769232
0.19230769230769232
0.19230769230769232
0.19230769230769232
0.19230769230769232
0.19230769230769232
0.2
0.2
0.2
0.2
0.2153846153846154
0.2153846153846154
0.2153846153846154
0.2153846153846154
0.2230769230769231
0.2230769230769231
0.2230769230769231
0.2230769230769231
0.2153846153846154
0.2153846153846154
0.2076923076923077
0.2
0.2
0.2076923076923077
0.2076923076923077
0.2
0.2230769230769231
0.23846153846153847
0.23846153846153847
0.23076923076923078
0.23076923076923078
0.23076923076923078
0.23076923076923078
0.2230769230769231
0.2230769230769231
0.23076923076923078
0.23076923076923078
0.2230769230769231
0.2230769230769231
0.2230769230769231
0.2230769230769231
0.23076923076923078
0.2230769230769231
0.2
0.17692307692307693
0.16153846153846155
0.14615384615384616
0.13076923076923078
0.12307692307692308
0.1076923076923077
0.08461538461538462
0.06923076923076923
0.05384615384615385
0.023076923076923078
0.015384615384615385
0.007692307692307693
-0.023076923076923078
-0.03076923076923077
-0.05384615384615385
-0.08461538461538462
-0.09230769230769231
-0.11538461538461539
-0.13846153846153847
-0.15384615384615385
-0.16153846153846155
-0.18461538461538463
-0.2076923076923077
-0.23076923076923078
-0.26153846153846155
-0.2846153846153846
-0.3076923076923077
-0.33076923076923076
-0.33076923076923076
-0.3153846153846154
-0.3153846153846154
-0.3153846153846154
-0.3076923076923077
-0.3
-0.3
-0.3
-0.3
-0.2846153846153846
-0.2846153846153846
-0.2846153846153846
-0.27692307692307694
-0.26153846153846155
-0.2692307692307692
-0.27692307692307694
-0.2692307692307692
-0.26153846153846155
-0.2692307692307692
-0.2846153846153846
-0.27692307692307694
-0.2846153846153846
-0.27692307692307694
-0.26153846153846155
-0.23846153846153847
-0.23846153846153847
-0.24615384615384617
-0.2230769230769231
-0.2153846153846154
-0.23076923076923078
-0.2153846153846154
-0.2153846153846154
-0.23076923076923078
-0.23076923076923078
-0.2153846153846154
-0.2153846153846154
-0.2153846153846154
-0.2153846153846154
-0.2153846153846154
-0.2
-0.2
-0.2076923076923077
-0.19230769230769232
-0.16923076923076924
-0.14615384615384616
-0.1076923076923077
-0.07692307692307693
-0.05384615384615385
-0.023076923076923078
0.007692307692307693
0.015384615384615385
0.023076923076923078
0.03076923076923077
0.038461538461538464
0.05384615384615385
0.06153846153846154
0.06153846153846154
0.07692307692307693
0.1
0.13076923076923078
0.15384615384615385
0.16923076923076924
0.19230769230769232
0.2
0.2076923076923077
0.2153846153846154
0.23076923076923078
0.24615384615384617
0.24615384615384617
0.25384615384615383
0.26153846153846155
0.2692307692307692
0.2692307692307692
0.2692307692307692
0.2692307692307692
0.2692307692307692
0.26153846153846155
0.2692307692307692
0.26153846153846155
0.26153846153846155
0.26153846153846155
0.26153846153846155
0.26153846153846155
0.26153846153846155
0.2692307692307692
0.27692307692307694
0.27692307692307694
0.2692307692307692
0.27692307692307694
0.27692307692307694
0.27692307692307694
0.2692307692307692
0.27692307692307694
0.2846153846153846
0.2846153846153846
0.27692307692307694
0.2846153846153846
0.2692307692307692
0.2846153846153846
0.2923076923076923
0.2846153846153846
0.3
0.3153846153846154
0.3230769230769231
0.33076923076923076
0.3384615384615385
0.36153846153846153
0.36153846153846153
0.36923076923076925
0.36923076923076925
0.36923076923076925
0.3923076923076923
0.4
0.4230769230769231
0.4230769230769231
0.4153846153846154
0.4153846153846154
0.4230769230769231
0.4230769230769231
0.4153846153846154
0.4153846153846154
0.4307692307692308
0.4153846153846154
0.4307692307692308
0.43846153846153846
0.4461538461538462
0.4461538461538462
0.45384615384615384
0.46923076923076923
0.46923076923076923
0.46923076923076923
0.46923076923076923
0.47692307692307695
0.49230769230769234
0.5
0.5076923076923077
0.5230769230769231
0.5307692307692308
0.5307692307692308
0.5307692307692308
0.5307692307692308
0.5230769230769231
0.5076923076923077
0.5153846153846153
0.5153846153846153
0.5076923076923077
0.5076923076923077
0.5076923076923077
0.5076923076923077
0.5153846153846153
0.5230769230769231
0.5076923076923077
0.5153846153846153
0.5230769230769231
0.5153846153846153
0.5230769230769231
0.5230769230769231
0.5307692307692308
0.5307692307692308
0.5307692307692308
0.5153846153846153
0.5230769230769231
0.5230769230769231
0.5153846153846153
0.5
0.5
0.49230769230769234
0.49230769230769234
0.4846153846153846
0.47692307692307695
0.4846153846153846
0.49230769230769234
0.4846153846153846
0.47692307692307695
0.47692307692307695
0.46923076923076923
0.46153846153846156
0.45384615384615384
0.4461538461538462
0.4461538461538462
0.43846153846153846
0.43846153846153846
0.4307692307692308
0.4230769230769231
0.4153846153846154
0.4076923076923077
0.4
0.3923076923076923
0.38461538461538464
0.38461538461538464
0.38461538461538464
0.3769230769230769
0.36923076923076925
0.36923076923076925
0.35384615384615387
0.35384615384615387
0.36153846153846153
0.34615384615384615
0.3384615384615385
0.34615384615384615
0.34615384615384615
0.3384615384615385
0.3230769230769231
0.3384615384615385
0.3384615384615385
0.33076923076923076
0.3230769230769231
0.33076923076923076
0.33076923076923076
0.3230769230769231
0.3230769230769231
0.3230769230769231
0.3230769230769231
0.3076923076923077
0.3076923076923077
0.3076923076923077
0.3
0.2923076923076923
0.2923076923076923
0.2923076923076923
0.2846153846153846
0.27692307692307694
0.2846153846153846
0.2846153846153846
0.27692307692307694
0.27692307692307694
0.2692307692307692
0.2692307692307692
0.26153846153846155
0.26153846153846155
0.26153846153846155
0.25384615384615383
0.25384615384615383
0.25384615384615383
0.25384615384615383
0.24615384615384617
0.23846153846153847
0.23846153846153847
0.23846153846153847
0.23846153846153847
0.24615384615384617
0.24615384615384617
0.24615384615384617
0.25384615384615383
0.23846153846153847
0.24615384615384617
0.25384615384615383
0.24615384615384617
0.23846153846153847
0.24615384615384617
0.24615384615384617
0.24615384615384617
0.24615384615384617
0.24615384615384617
0.23846153846153847
0.23846153846153847
0.23846153846153847
0.23846153846153847
0.23846153846153847
0.2230769230769231
0.23076923076923078
0.23846153846153847
0.2230769230769231
0.23846153846153847
0.23846153846153847
0.23076923076923078
0.23846153846153847
0.24615384615384617
0.23846153846153847
0.24615384615384617
0.24615384615384617
0.24615384615384617
0.24615384615384617
0.24615384615384617
0.23846153846153847
0.23846153846153847
0.24615384615384617
0.23846153846153847
0.24615384615384617
0.24615384615384617
0.23076923076923078
0.23076923076923078
0.23846153846153847
0.24615384615384617
0.23076923076923078
0.23846153846153847
0.23846153846153847
0.23846153846153847
0.24615384615384617
0.25384615384615383
0.25384615384615383
0.24615384615384617
0.23846153846153847
0.23846153846153847
0.23076923076923078
0.24615384615384617
0.23846153846153847
0.23076923076923078
0.23846153846153847
0.23076923076923078
0.23076923076923078
0.23846153846153847
0.23076923076923078
0.23076923076923078
0.23076923076923078
0.24615384615384617
0.23846153846153847
0.24615384615384617
0.24615384615384617
0.24615384615384617
0.24615384615384617
0.25384615384615383
0.25384615384615383
0.24615384615384617
0.24615384615384617
0.24615384615384617
0.23846153846153847
0.24615384615384617
0.23846153846153847
0.2230769230769231
0.23076923076923078
0.23846153846153847
0.23846153846153847
0.24615384615384617
0.24615384615384617
0.23076923076923078
0.24615384615384617
0.23846153846153847
0.23846153846153847
0.23846153846153847
0.24615384615384617
0.24615384615384617
0.23076923076923078
0.23076923076923078
0.23076923076923078
0.2230769230769231
0.23846153846153847
0.23846153846153847
0.23076923076923078
0.23846153846153847
0.24615384615384617
0.23846153846153847
0.23076923076923078
0.24615384615384617
0.23076923076923078
0.2230769230769231
0.23846153846153847
0.23846153846153847
0.2230769230769231
0.23846153846153847
0.23076923076923078
0.23076923076923078
0.23846153846153847
0.24615384615384617
0.23076923076923078
0.23076923076923078
0.23846153846153847
0.23846153846153847
0.23846153846153847
0.23846153846153847
0.23846153846153847
0.23076923076923078
0.23076923076923078
0.23076923076923078
0.23076923076923078
0.23076923076923078
0.2230769230769231
0.23076923076923078
0.23846153846153847
0.23076923076923078
0.2153846153846154
0.23076923076923078
0.24615384615384617
0.23846153846153847
0.23076923076923078
0.23846153846153847
0.23076923076923078
0.23076923076923078
0.2230769230769231
0.23076923076923078
0.2230769230769231
0.23846153846153847
0.24615384615384617
0.23076923076923078
0.2230769230769231
0.23076923076923078
0.23846153846153847
0.23076923076923078
0.2230769230769231
0.2230769230769231
0.23846153846153847
0.23076923076923078
0.2230769230769231
0.2230769230769231
0.23076923076923078
0.2230769230769231
0.2230769230769231
0.2230769230769231
0.2153846153846154
0.23076923076923078
0.23076923076923078
0.2153846153846154
0.2230769230769231
0.2230769230769231
0.2153846153846154
0.2153846153846154
0.2230769230769231
0.2230769230769231
0.2230769230769231
0.2153846153846154
0.2230769230769231
0.2153846153846154
0.23076923076923078
0.2230769230769231
0.2230769230769231
0.2230769230769231
0.2230769230769231
0.2153846153846154
0.2153846153846154
0.2153846153846154
0.2153846153846154
0.2153846153846154
0.2153846153846154
0.2230769230769231
0.2153846153846154
0.2153846153846154
0.2230769230769231
0.2230769230769231
0.2153846153846154
0.23076923076923078
0.2230769230769231
0.2153846153846154
0.2153846153846154
0.2230769230769231
0.2153846153846154
0.2
0.2076923076923077
0.2153846153846154
0.2230769230769231
0.2153846153846154
0.2230769230769231
0.2230769230769231
0.23076923076923078
0.2230769230769231
0.2230769230769231
0.2153846153846154
0.2230769230769231
0.2230769230769231
0.2076923076923077
0.2076923076923077
0.2153846153846154
0.19230769230769232
0.18461538461538463
0.2
0.2076923076923077
0.2
0.2
0.2076923076923077
0.19230769230769232
0.2153846153846154
0.2153846153846154
0.2076923076923077
0.2076923076923077
0.2153846153846154
0.2
0.2153846153846154
0.2076923076923077
0.2076923076923077
0.2
0.2076923076923077
0.2153846153846154
0.2076923076923077
0.2076923076923077
0.2153846153846154
0.2076923076923077
0.2076923076923077
0.2230769230769231
0.2230769230769231
0.2076923076923077
0.2153846153846154
0.2230769230769231
0.2076923076923077
0.19230769230769232
0.2
0.2
0.18461538461538463
0.2
0.19230769230769232
0.18461538461538463
0.19230769230769232
0.2
0.19230769230769232
0.2
0.2076923076923077
0.2
0.2
0.2153846153846154
0.2076923076923077
0.2
0.2
0.2
0.19230769230769232
0.19230769230769232
0.2
0.19230769230769232
0.18461538461538463
0.19230769230769232
0.19230769230769232
0.19230769230769232
0.2
0.19230769230769232
0.19230769230769232
0.2
0.19230769230769232
0.19230769230769232
0.2
0.2
0.19230769230769232
0.19230769230769232
0.2
0.2
0.19230769230769232
0.19230769230769232
0.19230769230769232
0.19230769230769232
0.19230769230769232
0.18461538461538463
0.18461538461538463
0.2
0.19230769230769232
0.19230769230769232
0.2
0.2076923076923077
0.19230769230769232
0.19230769230769232
0.2
0.18461538461538463
0.19230769230769232
0.2
0.2
0.19230769230769232
0.2
0.2
0.2
0.2
0.2
0.18461538461538463
0.19230769230769232
0.2
0.2
0.2
0.2076923076923077
0.2
0.2076923076923077
0.2076923076923077
0.2153846153846154
0.2153846153846154
0.2076923076923077
0.2230769230769231
0.2153846153846154
0.2076923076923077
0.2153846153846154
0.2153846153846154
0.2
0.2076923076923077
0.2
0.2
0.19230769230769232
0.18461538461538463
0.19230769230769232
0.2076923076923077
0.2153846153846154
0.23076923076923078
0.2230769230769231
0.2153846153846154
0.2
0.2230769230769231
0.23076923076923078
0.2230769230769231
0.2230769230769231
0.2230769230769231
0.23076923076923078
0.2230769230769231
0.2076923076923077
0.2076923076923077
0.2230769230769231
0.2230769230769231
0.2230769230769231
0.2153846153846154
0.2153846153846154
0.23076923076923078
0.23076923076923078
0.23076923076923078
0.23846153846153847
0.23846153846153847
0.23076923076923078
0.2153846153846154
0.23076923076923078
0.23846153846153847
0.23846153846153847
0.23846153846153847
0.2230769230769231
0.23076923076923078
0.2230769230769231
0.2153846153846154
0.2230769230769231
0.23076923076923078
0.2153846153846154
0.2230769230769231
0.23846153846153847
0.23846153846153847
0.23076923076923078
0.26153846153846155
0.26153846153846155
0.24615384615384617
0.27692307692307694
0.27692307692307694
0.2923076923076923
0.3076923076923077
0.3153846153846154
0.3
0.3076923076923077
0.3230769230769231
0.3153846153846154
0.3230769230769231
0.3230769230769231
0.3153846153846154
0.3230769230769231
0.3230769230769231
0.3230769230769231
0.3076923076923077
0.3
0.3
0.3
0.2923076923076923
0.27692307692307694
0.2692307692307692
0.26153846153846155
0.24615384615384617
0.23846153846153847
0.24615384615384617
0.24615384615384617
0.24615384615384617
0.23846153846153847
0.23846153846153847
0.23846153846153847
0.23076923076923078
0.23846153846153847
0.23076923076923078
0.2153846153846154
0.2076923076923077
0.2076923076923077
0.19230769230769232
0.18461538461538463
0.17692307692307693
0.17692307692307693
0.17692307692307693
0.17692307692307693
0.16923076923076924
0.17692307692307693
0.18461538461538463
0.17692307692307693
0.17692307692307693
0.18461538461538463
0.18461538461538463
0.18461538461538463
0.17692307692307693
0.17692307692307693
0.16923076923076924
0.16923076923076924
0.16923076923076924
0.16153846153846155
0.16153846153846155
0.16153846153846155
0.16153846153846155
0.16153846153846155
0.16153846153846155
0.15384615384615385
0.16153846153846155
0.15384615384615385
0.15384615384615385
0.15384615384615385
0.16153846153846155
0.16153846153846155
0.15384615384615385
0.13846153846153847
0.13076923076923078
0.13846153846153847
0.13846153846153847
0.14615384615384616
0.13846153846153847
0.13076923076923078
0.13076923076923078
0.13846153846153847
0.13076923076923078
0.11538461538461539
0.11538461538461539
0.1076923076923077
0.1076923076923077
0.1076923076923077
0.1
0.1076923076923077
0.1076923076923077
0.1076923076923077
0.1076923076923077
0.12307692307692308
0.13076923076923078
0.13076923076923078
0.14615384615384616
0.15384615384615385
0.17692307692307693
0.18461538461538463
0.19230769230769232
0.18461538461538463
0.19230769230769232
0.2
0.2
0.2076923076923077
0.2153846153846154
0.23846153846153847
0.2846153846153846
0.3230769230769231
0.33076923076923076
0.3384615384615385
0.3769230769230769
0.4153846153846154
0.4076923076923077
0.3769230769230769
0.36153846153846153
0.36923076923076925
0.35384615384615387
0.33076923076923076
0.3230769230769231
0.3153846153846154
0.3
0.3
0.3
0.2923076923076923
0.2846153846153846
0.26153846153846155
0.24615384615384617
0.24615384615384617
0.25384615384615383
0.2692307692307692
0.26153846153846155
0.24615384615384617
0.23846153846153847
0.24615384615384617
0.24615384615384617
0.2230769230769231
0.2153846153846154
0.2076923076923077
0.19230769230769232
0.17692307692307693
0.16923076923076924
0.17692307692307693
0.16923076923076924
0.16153846153846155
0.16923076923076924
0.17692307692307693
0.15384615384615385
0.14615384615384616
0.15384615384615385
0.15384615384615385
0.13846153846153847
0.13846153846153847
0.14615384615384616
0.14615384615384616
0.13846153846153847
0.13076923076923078
0.13076923076923078
0.13846153846153847
0.13076923076923078
0.13076923076923078
0.12307692307692308
0.12307692307692308
0.11538461538461539
0.11538461538461539
0.11538461538461539
0.12307692307692308
0.13076923076923078
0.13076923076923078
0.13076923076923078
0.13076923076923078
0.12307692307692308
0.11538461538461539
0.11538461538461539
0.1076923076923077
0.1076923076923077
0.11538461538461539
0.1076923076923077
0.1076923076923077
0.11538461538461539
0.11538461538461539
0.12307692307692308
0.12307692307692308
0.13076923076923078
0.13076923076923078
0.13846153846153847
0.13076923076923078
0.13076923076923078
0.12307692307692308
0.11538461538461539
0.1076923076923077
0.1076923076923077
0.11538461538461539
0.11538461538461539
0.12307692307692308
0.12307692307692308
0.12307692307692308
0.12307692307692308
0.12307692307692308
0.11538461538461539
0.1076923076923077
0.11538461538461539
0.11538461538461539
0.12307692307692308
0.13076923076923078
0.11538461538461539
0.11538461538461539
0.12307692307692308
0.12307692307692308
0.12307692307692308
0.13076923076923078
0.12307692307692308
0.11538461538461539
0.11538461538461539
0.12307692307692308
0.11538461538461539
0.11538461538461539
0.13076923076923078
0.12307692307692308
0.11538461538461539
0.12307692307692308
0.11538461538461539
0.1
0.11538461538461539
0.12307692307692308
0.12307692307692308
0.12307692307692308
0.12307692307692308
0.12307692307692308
0.1
0.1076923076923077
0.11538461538461539
0.11538461538461539
0.11538461538461539
0.11538461538461539
0.11538461538461539
0.1
0.09230769230769231
0.1
0.1076923076923077
0.1076923076923077
0.1
0.1076923076923077
0.1076923076923077
0.1
0.1
0.1
0.1076923076923077
0.1076923076923077
0.1076923076923077
0.1
0.1076923076923077
0.1
0.1076923076923077
0.12307692307692308
0.11538461538461539
0.1076923076923077
0.1076923076923077
0.1
0.1
0.1
0.1076923076923077
0.1076923076923077
0.1076923076923077
0.12307692307692308
0.12307692307692308
0.12307692307692308
0.12307692307692308
0.13076923076923078
0.13076923076923078
0.13846153846153847
0.12307692307692308
0.13076923076923078
0.13846153846153847
0.14615384615384616
0.14615384615384616
0.13846153846153847
0.14615384615384616
0.15384615384615385
0.15384615384615385
0.15384615384615385
0.15384615384615385
0.15384615384615385
0.16153846153846155
0.16153846153846155
0.16153846153846155
0.16923076923076924
0.17692307692307693
0.18461538461538463
0.18461538461538463
0.17692307692307693
0.17692307692307693
0.18461538461538463
0.16923076923076924
0.17692307692307693
0.19230769230769232
0.18461538461538463
0.18461538461538463
0.19230769230769232
0.18461538461538463
0.19230769230769232
0.19230769230769232
0.18461538461538463
0.18461538461538463
0.19230769230769232
0.19230769230769232
0.19230769230769232
0.19230769230769232
0.18461538461538463
0.19230769230769232
0.2
0.2076923076923077
0.2076923076923077
0.2076923076923077
0.2153846153846154
0.2076923076923077
0.2
0.19230769230769232
0.17692307692307693
0.19230769230769232
0.18461538461538463
0.19230769230769232
0.18461538461538463
0.17692307692307693
0.18461538461538463
0.2153846153846154
0.2153846153846154
0.2153846153846154
0.2153846153846154
0.2076923076923077
0.2076923076923077
0.2076923076923077
0.2153846153846154
0.2076923076923077
0.2076923076923077
0.2153846153846154
0.2153846153846154
0.2076923076923077
0.2076923076923077
0.2
0.2076923076923077
0.19230769230769232
0.17692307692307693
0.17692307692307693
0.18461538461538463
0.18461538461538463
0.18461538461538463
0.17692307692307693
0.19230769230769232
0.19230769230769232
0.19230769230769232
0.19230769230769232
0.2
0.2076923076923077
0.2076923076923077
0.2153846153846154
0.2230769230769231
0.2230769230769231
0.2076923076923077
0.2
0.2
0.2153846153846154
0.2153846153846154
0.2076923076923077
0.2
0.2
0.2
0.19230769230769232
0.18461538461538463
0.18461538461538463
0.18461538461538463
0.19230769230769232
0.19230769230769232
0.2076923076923077
0.2076923076923077
0.2076923076923077
0.2
0.2
0.2153846153846154
0.2230769230769231
0.2153846153846154
0.2076923076923077
0.2
0.2153846153846154
0.2076923076923077
0.2
0.19230769230769232
0.19230769230769232
0.19230769230769232
0.19230769230769232
0.18461538461538463
0.18461538461538463
0.18461538461538463
0.18461538461538463
0.19230769230769232
0.2
0.2076923076923077
0.2076923076923077
0.2076923076923077
0.2153846153846154
0.2230769230769231
0.2153846153846154
0.2153846153846154
0.2230769230769231
0.2076923076923077
0.2153846153846154
0.2076923076923077
0.2
0.2
0.2
0.2
0.2153846153846154
0.2230769230769231
0.23076923076923078
0.23076923076923078
0.23076923076923078
0.2230769230769231
0.2230769230769231
0.23846153846153847
0.23076923076923078
0.2230769230769231
0.24615384615384617
0.25384615384615383
0.24615384615384617
0.24615384615384617
0.23846153846153847
0.23846153846153847
0.23846153846153847
0.23846153846153847
0.23076923076923078
0.2230769230769231
0.23076923076923078
0.23076923076923078
0.2230769230769231
0.2230769230769231
0.23076923076923078
0.23846153846153847
0.23846153846153847
0.2230769230769231
0.23076923076923078
0.24615384615384617
0.23846153846153847
0.23076923076923078
0.23076923076923078
0.23846153846153847
0.2230769230769231
0.2153846153846154
0.2153846153846154
0.2
0.2
0.2153846153846154
0.2076923076923077
0.2076923076923077
0.2153846153846154
0.2076923076923077
0.2076923076923077
0.2153846153846154
0.2153846153846154
0.2076923076923077
0.2230769230769231
0.24615384615384617
0.24615384615384617
0.26153846153846155
0.27692307692307694
0.2923076923076923
0.2923076923076923
0.3153846153846154
0.3230769230769231
0.3230769230769231
0.3384615384615385
0.36153846153846153
0.36153846153846153
0.3769230769230769
0.3923076923076923
0.4076923076923077
0.4307692307692308
0.4307692307692308
0.45384615384615384
0.46923076923076923
0.49230769230769234
0.5
0.5153846153846153
0.5230769230769231
0.5384615384615384
0.5538461538461539
0.5538461538461539
0.5615384615384615
0.5692307692307692
0.5846153846153846
0.5769230769230769
0.5769230769230769
0.5846153846153846
0.5923076923076923
0.6076923076923076
0.6230769230769231
0.6230769230769231
0.6307692307692307
0.6538461538461539
0.6538461538461539
0.6538461538461539
0.676923076923077
0.6846153846153846
0.676923076923077
0.6615384615384615
0.6615384615384615
0.6538461538461539
0.6615384615384615
0.6538461538461539
0.6384615384615384
0.6230769230769231
0.6153846153846154
0.6
0.5769230769230769
0.5615384615384615
0.5461538461538461
0.5230769230769231
0.5307692307692308
0.5384615384615384
0.5230769230769231
0.5076923076923077
0.5
0.47692307692307695
0.47692307692307695
0.49230769230769234
0.47692307692307695
0.47692307692307695
0.46153846153846156
0.46923076923076923
0.47692307692307695
0.4846153846153846
0.4846153846153846
0.46153846153846156
0.45384615384615384
0.43846153846153846
0.4461538461538462
0.43846153846153846
0.4230769230769231
0.4153846153846154
0.4
0.36153846153846153
0.33076923076923076
0.3153846153846154
0.2923076923076923
0.2692307692307692
0.24615384615384617
0.2230769230769231
0.2076923076923077
0.19230769230769232
0.17692307692307693
0.16153846153846155
0.14615384615384616
0.13076923076923078
0.12307692307692308
0.13076923076923078
0.13076923076923078
0.12307692307692308
0.12307692307692308
0.11538461538461539
0.1076923076923077
0.1076923076923077
0.1076923076923077
0.1
0.09230769230769231
0.08461538461538462
0.08461538461538462
0.08461538461538462
0.08461538461538462
0.08461538461538462
0.09230769230769231
0.06923076923076923
0.06923076923076923
0.07692307692307693
0.08461538461538462
0.08461538461538462
0.07692307692307693
0.06923076923076923
0.06153846153846154
0.06153846153846154
0.06153846153846154
0.06153846153846154
0.05384615384615385
0.05384615384615385
0.046153846153846156
0.046153846153846156
0.046153846153846156
0.038461538461538464
0.023076923076923078
0.03076923076923077
0.038461538461538464
0.03076923076923077
0.023076923076923078
0.03076923076923077
0.03076923076923077
0.023076923076923078
0.023076923076923078
0.023076923076923078
0.023076923076923078
0.015384615384615385
0.007692307692307693
0.0
0.007692307692307693
0.007692307692307693
-0.007692307692307693
0.0
0.007692307692307693
0.0
-0.007692307692307693
-0.007692307692307693
-0.007692307692307693
-0.023076923076923078
-0.023076923076923078
-0.015384615384615385
-0.015384615384615385
-0.007692307692307693
-0.023076923076923078
-0.03076923076923077
-0.038461538461538464
-0.03076923076923077
-0.023076923076923078
-0.015384615384615385
-0.015384615384615385
-0.023076923076923078
-0.03076923076923077
-0.023076923076923078
-0.023076923076923078
-0.03076923076923077
-0.038461538461538464
-0.03076923076923077
-0.03076923076923077
-0.05384615384615385
-0.05384615384615385
-0.046153846153846156
-0.038461538461538464
-0.046153846153846156
-0.05384615384615385
-0.05384615384615385
-0.046153846153846156
-0.046153846153846156
-0.046153846153846156
-0.05384615384615385
-0.046153846153846156
-0.046153846153846156
-0.046153846153846156
-0.046153846153846156
-0.046153846153846156
-0.046153846153846156
-0.05384615384615385
-0.05384615384615385
-0.05384615384615385
-0.05384615384615385
-0.046153846153846156
-0.05384615384615385
-0.06153846153846154
-0.05384615384615385
-0.038461538461538464
-0.046153846153846156
-0.05384615384615385
-0.038461538461538464
-0.03076923076923077
-0.046153846153846156
-0.038461538461538464
-0.03076923076923077
-0.038461538461538464
-0.046153846153846156
-0.046153846153846156
-0.038461538461538464
-0.046153846153846156
-0.046153846153846156
-0.038461538461538464
-0.03076923076923077
-0.03076923076923077
-0.023076923076923078
-0.03076923076923077
-0.023076923076923078
-0.007692307692307693
-0.015384615384615385
-0.015384615384615385
0.0
0.007692307692307693
0.007692307692307693
0.015384615384615385
0.023076923076923078
0.007692307692307693
0.023076923076923078
0.038461538461538464
0.023076923076923078
0.03076923076923077
0.046153846153846156
0.046153846153846156
0.038461538461538464
0.046153846153846156
0.03076923076923077
0.038461538461538464
0.03076923076923077
0.03076923076923077
0.023076923076923078
0.038461538461538464
0.046153846153846156
0.05384615384615385
0.05384615384615385
0.06153846153846154
0.07692307692307693
0.09230769230769231
0.07692307692307693
0.09230769230769231
0.1
0.1
0.11538461538461539
0.12307692307692308
0.13076923076923078
0.13076923076923078
0.13076923076923078
0.13076923076923078
0.13846153846153847
0.15384615384615385
0.15384615384615385
0.16153846153846155
0.16153846153846155
0.16153846153846155
0.16923076923076924
0.16923076923076924
0.17692307692307693
0.16923076923076924
0.18461538461538463
0.18461538461538463
0.18461538461538463
0.18461538461538463
0.19230769230769232
0.17692307692307693
0.16923076923076924
0.17692307692307693
0.17692307692307693
0.16923076923076924
0.16923076923076924
0.17692307692307693
0.16923076923076924
0.16923076923076924
0.16923076923076924
0.16923076923076924
0.16923076923076924
0.16923076923076924
0.16923076923076924
0.17692307692307693
0.19230769230769232
0.2
0.2076923076923077
0.2076923076923077
0.2076923076923077
0.2
0.2
0.19230769230769232
0.19230769230769232
0.2
0.19230769230769232
0.18461538461538463
0.19230769230769232
0.19230769230769232
0.19230769230769232
0.2
0.19230769230769232
0.19230769230769232
0.19230769230769232
0.2076923076923077
0.2076923076923077
0.2153846153846154
0.2076923076923077
0.2076923076923077
0.2153846153846154
0.2076923076923077
0.2
0.2
0.2
0.19230769230769232
0.18461538461538463
0.19230769230769232
0.18461538461538463
0.19230769230769232
0.2
0.19230769230769232
0.2076923076923077
0.2153846153846154
0.2230769230769231
0.2230769230769231
0.2153846153846154
0.2076923076923077
0.2153846153846154
0.2153846153846154
0.2153846153846154
0.2076923076923077
0.2153846153846154
0.2230769230769231
0.2230769230769231
0.2153846153846154
0.2153846153846154
0.2153846153846154
0.2076923076923077
0.19230769230769232
0.17692307692307693
0.16153846153846155
0.15384615384615385
0.13846153846153847
0.12307692307692308
0.11538461538461539
0.09230769230769231
0.06923076923076923
0.05384615384615385
0.023076923076923078
0.007692307692307693
-0.015384615384615385
-0.03076923076923077
-0.046153846153846156
-0.06923076923076923
-0.08461538461538462
-0.1076923076923077
-0.11538461538461539
-0.13076923076923078
-0.14615384615384616
