ECG
-0.1
-0.075
-0.05
-0.025
0.0
0.0375
0.0625
0.0875
0.1125
0.1375
0.175
0.2
0.225
0.25
0.275
0.3125
0.3375
0.3625
0.3875
0.4125
0.4375
0.475
0.5
0.525
0.55
0.575
0.6125
0.6375
0.6625
0.6875
0.7125
0.75
0.7125
0.6875
0.6625
0.6375
0.6125
0.575
0.55
0.525
0.5
0.475
0.4375
0.4125
0.3875
0.3625
0.3375
0.3125
0.275
0.25
0.225
0.2
0.175
0.1375
0.1125
0.0875
0.0625
0.0375
0.0
-0.025
-0.05
-0.075
-0.1
-0.125
-0.15
-0.175
-0.2
-0.225
-0.2
-0.175
-0.15
-0.125
-0.125
-0.125
-0.125
-0.125
-0.125
-0.125
-0.125
-0.125
-0.125
-0.125
-0.125
-0.125
-0.125
-0.125
-0.125
-0.125
-0.125
-0.125
-0.125
-0.125
-0.125
-0.125
-0.125
-0.125
-0.125
-0.125
-0.125
-0.125
-0.125
-0.125
-0.125
-0.125
-0.125
-0.125
-0.125
-0.125
-0.125
-0.125
-0.125
-0.125
-0.125
-0.125
-0.125
-0.125
-0.125
-0.125
-0.125
-0.125
-0.125
-0.125
-0.125
-0.125
-0.125
-0.125
-0.125
-0.125
-0.125
-0.125
-0.125
-0.125
-0.125
-0.125
-0.125
-0.125
-0.125
-0.125
-0.125
-0.125
-0.125
-0.125
-0.125
-0.125
-0.125
-0.125
-0.125
-0.125
-0.125
-0.125
-0.125
-0.125
-0.125
-0.125
-0.125
-0.125
-0.125
-0.125
-0.125
-0.125
-0.125
-0.125
-0.125
-0.125
-0.125
-0.125
-0.125
-0.125
-0.125
-0.125
-0.125
-0.125
-0.125
-0.125
-0.125
-0.125
-0.125
-0.125
-0.125
-0.125
-0.125
-0.125
-0.125
-0.125
-0.125
-0.125
-0.125
-0.125
-0.125
-0.125
-0.125
-0.125
-0.125
-0.125
-0.125
-0.125
-0.125
-0.125
-0.125
-0.125
-0.125
-0.125
-0.125
-0.125
-0.125
-0.125
-0.125
-0.125
-0.125
-0.125
-0.125
-0.125
-0.125
-0.125
-0.125
-0.125
-0.125
-0.125
-0.125
-0.125
-0.125
-0.125
-0.125
-0.125
-0.125
-0.125
-0.125
-0.125
-0.125
-0.125
-0.125
-0.125
-0.125
-0.125
-0.125
-0.125
-0.125
-0.125
-0.125
-0.125
-0.125
-0.125
-0.125
-0.125
-0.125
-0.125
-0.125
-0.125
-0.125
-0.125
-0.125
-0.125
-0.125
-0.125
-0.125
-0.125
-0.125
-0.125
-0.125
-0.125
-0.125
-0.125
-0.125
-0.125
-0.125
-0.125
-0.125
-0.125
-0.125
-0.125
-0.125
-0.125
-0.125
-0.125
-0.125
-0.125
-0.125
-0.125
-0.125
-0.125
-0.125
-0.125
-0.125
-0.125
-0.125
-0.125
-0.125
-0.125
-0.125
-0.125
-0.125
-0.125
-0.125
-0.125
-0.125
-0.125
-0.125
-0.125
-0.125
-0.125
-0.125
-0.125
-0.125
-0.125
-0.125
-0.125
-0.125
-0.125
-0.125
-0.125
-0.125
-0.125
-0.125
-0.125
-0.125
-0.125
-0.125
-0.125
-0.125
-0.125
-0.125
-0.125
-0.125
-0.125
-0.125
-0.125
-0.125
-0.125
-0.125
-0.125
-0.125
-0.125
-0.125
-0.125
-0.125
-0.125
-0.125
-0.125
-0.125
-0.125
-0.125
-0.125
-0.125
-0.125
-0.125
-0.125
-0.125
-0.125
-0.125
-0.125
-0.125
-0.125
-0.125
-0.125
-0.125
-0.125
-0.125
-0.125
-0.125
-0.125
-0.125
-0.125
-0.125
-0.125
-0.125
-0.125
-0.125
-0.125
-0.125
-0.125
-0.125
-0.125
-0.125
-0.125
-0.125
-0.125
-0.125
-0.125
-0.125
-0.125
-0.125
-0.125
-0.125
-0.125
-0.125
-0.125
-0.125
-0.125
-0.125
-0.125
-0.125
-0.125
-0.125
-0.125
-0.125
-0.125
-0.125
-0.125
-0.125
-0.125
-0.125
-0.125
-0.125
-0.125
-0.125
-0.125
-0.125
-0.125
-0.125
-0.125
-0.125
-0.125
-0.125
-0.125
-0.125
-0.125
-0.125
-0.125
-0.125
-0.125
-0.125
-0.125
-0.125
-0.125
-0.125
-0.125
-0.125
-0.125
-0.125
-0.125
-0.125
-0.125
-0.125
-0.125
-0.125
-0.125
-0.125
-0.125
-0.125
-0.125
-0.125
-0.125
-0.125
-0.125
-0.125
-0.125
-0.125
-0.125
-0.125
-0.125
-0.125
-0.125
-0.125
-0.125
-0.125
-0.125
-0.125
-0.125
-0.125
-0.125
-0.125
-0.125
-0.125
-0.125
-0.125
-0.125
-0.125
-0.125
-0.125
-0.125
-0.125
-0.125
-0.125
-0.125
-0.125
-0.125
-0.125
-0.125
-0.125
-0.125
-0.125
-0.125
-0.125
-0.125
-0.125
-0.125
-0.125
-0.125
-0.125
-0.125
-0.125
-0.125
-0.125
-0.125
-0.125
-0.125
-0.125
-0.125
-0.125
-0.125
-0.125
-0.125
-0.125
-0.125
-0.125
-0.125
-0.125
-0.125
-0.125
-0.125
-0.125
-0.125
-0.125
-0.125
-0.125
-0.125
-0.125
-0.125
-0.125
-0.125
-0.125
-0.125
-0.125
-0.125
-0.125
-0.125
-0.125
-0.125
-0.125
-0.125
-0.125
-0.125
-0.125
-0.125
-0.125
-0.125
-0.125
-0.125
-0.125
-0.125
-0.1
-0.075
-0.05
-0.025
0.0
0.0375
0.0625
0.0875
0.1125
0.1375
0.175
0.2
0.225
0.25
0.275
0.3125
0.3375
0.3625
0.3875
0.4125
0.4375
0.475
0.5
0.525
0.55
0.575
0.6125
0.6375
0.6625
0.6875
0.7125
0.75
0.7125
0.6875
0.6625
0.6375
0.6125
0.575
0.55
0.525
0.5
0.475
0.4375
0.4125
0.3875
0.3625
0.3375
0.3125
0.275
0.25
0.225
0.2
0.175
0.1375
0.1125
0.0875
0.0625
0.0375
0.0
-0.025
-0.05
-0.075
-0.1
-0.125
-0.15
-0.175
-0.2
-0.225
-0.2
-0.175
-0.15
-0.125
-0.125
-0.125
-0.125
-0.125
-0.125
-0.125
-0.125
-0.125
-0.125
-0.125
-0.125
-0.125
-0.125
-0.125
-0.125
-0.125
-0.125
-0.125
-0.125
-0.125
-0.125
-0.125
-0.125
-0.125
-0.125
-0.125
-0.125
-0.125
-0.125
-0.125
-0.125
-0.125
-0.125
-0.125
-0.125
-0.125
-0.125
-0.125
-0.125
-0.125
-0.125
-0.125
-0.125
-0.125
-0.125
-0.125
-0.125
-0.125
-0.125
-0.125
-0.125
-0.125
-0.125
-0.125
-0.125
-0.125
-0.125
-0.125
-0.125
-0.125
-0.125
-0.125
-0.125
-0.125
-0.125
-0.125
-0.125
-0.125
-0.125
-0.125
-0.125
-0.125
-0.125
-0.125
-0.125
-0.125
-0.125
-0.125
-0.125
-0.125
-0.125
-0.125
-0.125
-0.125
-0.125
-0.125
-0.125
-0.125
-0.125
-0.125
-0.125
-0.125
-0.125
-0.125
-0.125
-0.125
-0.125
-0.125
-0.125
-0.125
-0.125
-0.125
-0.125
-0.125
-0.125
-0.125
-0.125
-0.125
-0.125
-0.125
-0.125
-0.125
-0.125
-0.125
-0.125
-0.125
-0.125
-0.125
-0.125
-0.125
-0.125
-0.125
-0.125
-0.125
-0.125
-0.125
-0.125
-0.125
-0.125
-0.125
-0.125
-0.125
-0.125
-0.125
-0.125
-0.125
-0.125
-0.125
-0.125
-0.125
-0.125
-0.125
-0.125
-0.125
-0.125
-0.125
-0.125
-0.125
-0.125
-0.125
-0.125
-0.125
-0.125
-0.125
-0.125
-0.125
-0.125
-0.125
-0.125
-0.125
-0.125
-0.125
-0.125
-0.125
-0.125
-0.125
-0.125
-0.125
-0.125
-0.125
-0.125
-0.125
-0.125
-0.125
-0.125
-0.125
-0.125
-0.125
-0.125
-0.125
-0.125
-0.125
-0.125
-0.125
-0.125
-0.125
-0.125
-0.125
-0.125
-0.125
-0.125
-0.125
-0.125
-0.125
-0.125
-0.125
-0.125
-0.125
-0.125
-0.125
-0.125
-0.125
-0.125
-0.125
-0.125
-0.125
-0.125
-0.125
-0.125
-0.125
-0.125
-0.125
-0.125
-0.125
-0.125
-0.125
-0.125
-0.125
-0.125
-0.125
-0.125
-0.125
-0.125
-0.125
-0.125
-0.125
-0.125
-0.125
-0.125
-0.125
-0.125
-0.125
-0.125
-0.125
-0.125
-0.125
-0.125
-0.125
-0.125
-0.125
-0.125
-0.125
-0.125
-0.125
-0.125
-0.125
-0.125
-0.125
-0.125
-0.125
-0.125
-0.125
-0.125
-0.125
-0.125
-0.125
-0.125
-0.125
-0.125
-0.125
-0.125
-0.125
-0.125
-0.125
-0.125
-0.125
-0.125
-0.125
-0.125
-0.125
-0.125
-0.125
-0.125
-0.125
-0.125
-0.125
-0.125
-0.125
-0.125
-0.125
-0.125
-0.125
-0.125
-0.125
-0.125
-0.125
-0.125
-0.125
-0.125
-0.125
-0.125
-0.125
-0.125
-0.125
-0.125
-0.125
-0.125
-0.125
-0.125
-0.125
-0.125
-0.125
-0.125
-0.125
-0.125
-0.125
-0.125
-0.125
-0.125
-0.125
-0.125
-0.125
-0.125
-0.125
-0.125
-0.125
-0.125
-0.125
-0.125
-0.125
-0.125
-0.125
-0.125
-0.125
-0.125
-0.125
-0.125
-0.125
-0.125
-0.125
-0.125
-0.125
-0.125
-0.125
-0.125
-0.125
-0.125
-0.125
-0.125
-0.125
-0.125
-0.125
-0.125
-0.125
-0.125
-0.125
-0.125
-0.125
-0.125
-0.125
-0.125
-0.125
-0.125
-0.125
-0.125
-0.125
-0.125
-0.125
-0.125
-0.125
-0.125
-0.125
-0.125
-0.125
-0.125
-0.125
-0.125
-0.125
-0.125
-0.125
-0.125
-0.125
-0.125
-0.125
-0.125
-0.125
-0.125
-0.125
-0.125
-0.125
-0.125
-0.125
-0.125
-0.125
-0.125
-0.125
-0.125
-0.125
-0.125
-0.125
-0.125
-0.125
-0.125
-0.125
-0.125
-0.125
-0.125
-0.125
-0.125
-0.125
-0.125
-0.125
-0.125
-0.125
-0.125
-0.125
-0.125
-0.125
-0.125
-0.125
-0.125
-0.125
-0.125
-0.125
-0.125
-0.125
-0.125
-0.125
-0.125
-0.125
-0.125
-0.125
-0.125
-0.125
-0.125
-0.125
-0.125
-0.125
-0.125
-0.125
-0.125
-0.125
-0.125
-0.125
-0.125
-0.125
-0.125
-0.125
-0.125
-0.125
-0.125
-0.125
-0.125
-0.125
-0.125
-0.125
-0.125
-0.125
-0.125
-0.125
-0.125
-0.125
-0.125
-0.125
-0.125
-0.125
-0.125
-0.125
-0.125
-0.125
-0.125
-0.125
-0.125
-0.125
-0.125
-0.125
-0.125
-0.125
-0.1
-0.075
-0.05
-0.025
0.0
0.0375
0.0625
0.0875
0.1125
0.1375
0.175
0.2
0.225
0.25
0.275
0.3125
0.3375
0.3625
0.3875
0.4125
0.4375
0.475
0.5
0.525
0.55
0.575
0.6125
0.6375
0.6625
0.6875
0.7125
0.75
0.7125
0.6875
0.6625
0.6375
0.6125
0.575
0.55
0.525
0.5
0.475
0.4375
0.4125
0.3875
0.3625
0.3375
0.3125
0.275
0.25
0.225
0.2
0.175
0.1375
0.1125
0.0875
0.0625
0.0375
0.0
-0.025
-0.05
-0.075
-0.1
-0.125
-0.15
-0.175
-0.2
-0.225
-0.2
-0.175
-0.15
-0.125
-0.125
-0.125
-0.125
-0.125
-0.125
-0.125
-0.125
-0.125
-0.125
-0.125
-0.125
-0.125
-0.125
-0.125
-0.125
-0.125
-0.125
-0.125
-0.125
-0.125
-0.125
-0.125
-0.125
-0.125
-0.125
-0.125
-0.125
-0.125
-0.125
-0.125
-0.125
-0.125
-0.125
-0.125
-0.125
-0.125
-0.125
-0.125
-0.125
-0.125
-0.125
-0.125
-0.125
-0.125
-0.125
-0.125
-0.125
-0.125
-0.125
-0.125
-0.125
-0.125
-0.125
-0.125
-0.125
-0.125
-0.125
-0.125
-0.125
-0.125
-0.125
-0.125
-0.125
-0.125
-0.125
-0.125
-0.125
-0.125
-0.125
-0.125
-0.125
-0.125
-0.125
-0.125
-0.125
-0.125
-0.125
-0.125
-0.125
-0.125
-0.125
-0.125
-0.125
-0.125
-0.125
-0.125
-0.125
-0.125
-0.125
-0.125
-0.125
-0.125
-0.125
-0.125
-0.125
-0.125
-0.125
-0.125
-0.125
-0.125
-0.125
-0.125
-0.125
-0.125
-0.125
-0.125
-0.125
-0.125
-0.125
-0.125
-0.125
-0.125
-0.125
-0.125
-0.125
-0.125
-0.125
-0.125
-0.125
-0.125
-0.125
-0.125
-0.125
-0.125
-0.125
-0.125
-0.125
-0.125
-0.125
-0.125
-0.125
-0.125
-0.125
-0.125
-0.125
-0.125
-0.125
-0.125
-0.125
-0.125
-0.125
-0.125
-0.125
-0.125
-0.125
-0.125
-0.125
-0.125
-0.125
-0.125
-0.125
-0.125
-0.125
-0.125
-0.125
-0.125
-0.125
-0.125
-0.125
-0.125
-0.125
-0.125
-0.125
-0.125
-0.125
-0.125
-0.125
-0.125
-0.125
-0.125
-0.125
-0.125
-0.125
-0.125
-0.125
-0.125
-0.125
-0.125
-0.125
-0.125
-0.125
-0.125
-0.125
-0.125
-0.125
-0.125
-0.125
-0.125
-0.125
-0.125
-0.125
-0.125
-0.125
-0.125
-0.125
-0.125
-0.125
-0.125
-0.125
-0.125
-0.125
-0.125
-0.125
-0.125
-0.125
-0.125
-0.125
-0.125
-0.125
-0.125
-0.125
-0.125
-0.125
-0.125
-0.125
-0.125
-0.125
-0.125
-0.125
-0.125
-0.125
-0.125
-0.125
-0.125
-0.125
-0.125
-0.125
-0.125
-0.125
-0.125
-0.125
-0.125
-0.125
-0.125
-0.125
-0.125
-0.125
-0.125
-0.125
-0.125
-0.125
-0.125
-0.125
-0.125
-0.125
-0.125
-0.125
-0.125
-0.125
-0.125
-0.125
-0.125
-0.125
-0.125
-0.125
-0.125
-0.125
-0.125
-0.125
-0.125
-0.125
-0.125
-0.125
-0.125
-0.125
-0.125
-0.125
-0.125
-0.125
-0.125
-0.125
-0.125
-0.125
-0.125
-0.125
-0.125
-0.125
-0.125
-0.125
-0.125
-0.125
-0.125
-0.125
-0.125
-0.125
-0.125
-0.125
-0.125
-0.125
-0.125
-0.125
-0.125
-0.125
-0.125
-0.125
-0.125
-0.125
-0.125
-0.125
-0.125
-0.125
-0.125
-0.125
-0.125
-0.125
-0.125
-0.125
-0.125
-0.125
-0.125
-0.125
-0.125
-0.125
-0.125
-0.125
-0.125
-0.125
-0.125
-0.125
-0.125
-0.125
-0.125
-0.125
-0.125
-0.125
-0.125
-0.125
-0.125
-0.125
-0.125
-0.125
-0.125
-0.125
-0.125
-0.125
-0.125
-0.125
-0.125
-0.125
-0.125
-0.125
-0.125
-0.125
-0.125
-0.125
-0.125
-0.125
-0.125
-0.125
-0.125
-0.125
-0.125
-0.125
-0.125
-0.125
-0.125
-0.125
-0.125
-0.125
-0.125
-0.125
-0.125
-0.125
-0.125
-0.125
-0.125
-0.125
-0.125
-0.125
-0.125
-0.125
-0.125
-0.125
-0.125
-0.125
-0.125
-0.125
-0.125
-0.125
-0.125
-0.125
-0.125
-0.125
-0.125
-0.125
-0.125
-0.125
-0.125
-0.125
-0.125
-0.125
-0.125
-0.125
-0.125
-0.125
-0.125
-0.125
-0.125
-0.125
-0.125
-0.125
-0.125
-0.125
-0.125
-0.125
-0.125
-0.125
-0.125
-0.125
-0.125
-0.125
-0.125
-0.125
-0.125
-0.125
-0.125
-0.125
-0.125
-0.125
-0.125
-0.125
-0.125
-0.125
-0.125
-0.125
-0.125
-0.125
-0.125
-0.125
-0.125
-0.125
-0.125
-0.125
-0.125
-0.125
-0.125
-0.125
-0.125
-0.125
-0.125
-0.125
-0.125
-0.125
-0.125
-0.125
-0.125
-0.125
-0.125
-0.125
-0.125
-0.125
-0.125
-0.125
-0.125
-0.125
-0.125
-0.125
-0.125
-0.125
-0.125
-0.125
-0.125
-0.125
-0.125
-0.125
-0.125
-0.125
-0.125
-0.1
-0.075
-0.05
-0.025
0.0
0.0375
0.0625
0.0875
0.1125
0.1375
0.175
0.2
0.225
0.25
0.275
0.3125
0.3375
0.3625
0.3875
0.4125
0.4375
0.475
0.5
0.525
0.55
0.575
0.6125
0.6375
0.6625
0.6875
0.7125
0.75
0.7125
0.6875
0.6625
0.6375
0.6125
0.575
0.55
0.525
0.5
0.475
0.4375
0.4125
0.3875
0.3625
0.3375
0.3125
0.275
0.25
0.225
0.2
0.175
0.1375
0.1125
0.0875
0.0625
0.0375
0.0
-0.025
-0.05
-0.075
-0.1
-0.125
-0.15
-0.175
-0.2
-0.225
-0.2
-0.175
-0.15
-0.125
-0.125
-0.125
-0.125
-0.125
-0.125
-0.125
-0.125
-0.125
-0.125
-0.125
-0.125
-0.125
-0.125
-0.125
-0.125
-0.125
-0.125
-0.125
-0.125
-0.125
-0.125
-0.125
-0.125
-0.125
-0.125
-0.125
-0.125
-0.125
-0.125
-0.125
-0.125
-0.125
-0.125
-0.125
-0.125
-0.125
-0.125
-0.125
-0.125
-0.125
-0.125
-0.125
-0.125
-0.125
-0.125
-0.125
-0.125
-0.125
-0.125
-0.125
-0.125
-0.125
-0.125
-0.125
-0.125
-0.125
-0.125
-0.125
-0.125
-0.125
-0.125
-0.125
-0.125
-0.125
-0.125
-0.125
-0.125
-0.125
-0.125
-0.125
-0.125
-0.125
-0.125
-0.125
-0.125
-0.125
-0.125
-0.125
-0.125
-0.125
-0.125
-0.125
-0.125
-0.125
-0.125
-0.125
-0.125
-0.125
-0.125
-0.125
-0.125
-0.125
-0.125
-0.125
-0.125
-0.125
-0.125
-0.125
-0.125
-0.125
-0.125
-0.125
-0.125
-0.125
-0.125
-0.125
-0.125
-0.125
-0.125
-0.125
-0.125
-0.125
-0.125
-0.125
-0.125
-0.125
-0.125
-0.125
-0.125
-0.125
-0.125
-0.125
-0.125
-0.125
-0.125
-0.125
-0.125
-0.125
-0.125
-0.125
-0.125
-0.125
-0.125
-0.125
-0.125
-0.125
-0.125
-0.125
-0.125
-0.125
-0.125
-0.125
-0.125
-0.125
-0.125
-0.125
-0.125
-0.125
-0.125
-0.125
-0.125
-0.125
-0.125
-0.125
-0.125
-0.125
-0.125
-0.125
-0.125
-0.125
-0.125
-0.125
-0.125
-0.125
-0.125
-0.125
-0.125
-0.125
-0.125
-0.125
-0.125
-0.125
-0.125
-0.125
-0.125
-0.125
-0.125
-0.125
-0.125
-0.125
-0.125
-0.125
-0.125
-0.125
-0.125
-0.125
-0.125
-0.125
-0.125
-0.125
-0.125
-0.125
-0.125
-0.125
-0.125
-0.125
-0.125
-0.125
-0.125
-0.125
-0.125
-0.125
-0.125
-0.125
-0.125
-0.125
-0.125
-0.125
-0.125
-0.125
-0.125
-0.125
-0.125
-0.125
-0.125
-0.125
-0.125
-0.125
-0.125
-0.125
-0.125
-0.125
-0.125
-0.125
-0.125
-0.125
-0.125
-0.125
-0.125
-0.125
-0.125
-0.125
-0.125
-0.125
-0.125
-0.125
-0.125
-0.125
-0.125
-0.125
-0.125
-0.125
-0.125
-0.125
-0.125
-0.125
-0.125
-0.125
-0.125
-0.125
-0.125
-0.125
-0.125
-0.125
-0.125
-0.125
-0.125
-0.125
-0.125
-0.125
-0.125
-0.125
-0.125
-0.125
-0.125
-0.125
-0.125
-0.125
-0.125
-0.125
-0.125
-0.125
-0.125
-0.125
-0.125
-0.125
-0.125
-0.125
-0.125
-0.125
-0.125
-0.125
-0.125
-0.125
-0.125
-0.125
-0.125
-0.125
-0.125
-0.125
-0.125
-0.125
-0.125
-0.125
-0.125
-0.125
-0.125
-0.125
-0.125
-0.125
-0.125
-0.125
-0.125
-0.125
-0.125
-0.125
-0.125
-0.125
-0.125
-0.125
-0.125
-0.125
-0.125
-0.125
-0.125
-0.125
-0.125
-0.125
-0.125
-0.125
-0.125
-0.125
-0.125
-0.125
-0.125
-0.125
-0.125
-0.125
-0.125
-0.125
-0.125
-0.125
-0.125
-0.125
-0.125
-0.125
-0.125
-0.125
-0.125
-0.125
-0.125
-0.125
-0.125
-0.125
-0.125
-0.125
-0.125
-0.125
-0.125
-0.125
-0.125
-0.125
-0.125
-0.125
-0.125
-0.125
-0.125
-0.125
-0.125
-0.125
-0.125
-0.125
-0.125
-0.125
-0.125
-0.125
-0.125
-0.125
-0.125
-0.125
-0.125
-0.125
-0.125
-0.125
-0.125
-0.125
-0.125
-0.125
-0.125
-0.125
-0.125
-0.125
-0.125
-0.125
-0.125
-0.125
-0.125
-0.125
-0.125
-0.125
-0.125
-0.125
-0.125
-0.125
-0.125
-0.125
-0.125
-0.125
-0.125
-0.125
-0.125
-0.125
-0.125
-0.125
-0.125
-0.125
-0.125
-0.125
-0.125
-0.125
-0.125
-0.125
-0.125
-0.125
-0.125
-0.125
-0.125
-0.125
-0.125
-0.125
-0.125
-0.125
-0.125
-0.125
-0.125
-0.125
-0.125
-0.125
-0.125
-0.125
-0.125
-0.125
-0.125
-0.125
-0.125
-0.125
-0.125
-0.125
-0.125
-0.125
-0.125
-0.125
-0.125
-0.125
-0.125
-0.125
-0.125
-0.125
-0.125
-0.125
-0.125
-0.125
-0.125
-0.125
-0.125
-0.125
-0.125
-0.125
-0.125
-0.125
-0.125
-0.125
-0.125
-0.125
-0.125
-0.125
-0.125
-0.125
-0.1
-0.075
-0.05
-0.025
0.0
0.0375
0.0625
0.0875
0.1125
0.1375
0.175
0.2
0.225
0.25
0.275
0.3125
0.3375
0.3625
0.3875
0.4125
0.4375
0.475
0.5
0.525
0.55
0.575
0.6125
0.6375
0.6625
0.6875
0.7125
0.75
0.7125
0.6875
0.6625
0.6375
0.6125
0.575
0.55
0.525
0.5
0.475
0.4375
0.4125
0.3875
0.3625
0.3375
0.3125
0.275
0.25
0.225
0.2
0.175
0.1375
0.1125
0.0875
0.0625
0.0375
0.0
-0.025
-0.05
-0.075
-0.1
-0.125
-0.15
-0.175
-0.2
-0.225
-0.2
-0.175
-0.15
-0.125
-0.125
-0.125
-0.125
-0.125
-0.125
-0.125
-0.125
-0.125
-0.125
-0.125
-0.125
-0.125
-0.125
-0.125
-0.125
-0.125
-0.125
-0.125
-0.125
-0.125
-0.125
-0.125
-0.125
-0.125
-0.125
-0.125
-0.125
-0.125
-0.125
-0.125
-0.125
-0.125
-0.125
-0.125
-0.125
-0.125
-0.125
-0.125
-0.125
-0.125
-0.125
-0.125
-0.125
-0.125
-0.125
-0.125
-0.125
-0.125
-0.125
-0.125
-0.125
-0.125
-0.125
-0.125
-0.125
-0.125
-0.125
-0.125
-0.125
-0.125
-0.125
-0.125
-0.125
-0.125
-0.125
-0.125
-0.125
-0.125
-0.125
-0.125
-0.125
-0.125
-0.125
-0.125
-0.125
-0.125
-0.125
-0.125
-0.125
-0.125
-0.125
-0.125
-0.125
-0.125
-0.125
-0.125
-0.125
-0.125
-0.125
-0.125
-0.125
-0.125
-0.125
-0.125
-0.125
-0.125
-0.125
-0.125
-0.125
-0.125
-0.125
-0.125
-0.125
-0.125
-0.125
-0.125
-0.125
-0.125
-0.125
-0.125
-0.125
-0.125
-0.125
-0.125
-0.125
-0.125
-0.125
-0.125
-0.125
-0.125
-0.125
-0.125
-0.125
-0.125
-0.125
-0.125
-0.125
-0.125
-0.125
-0.125
-0.125
-0.125
-0.125
-0.125
-0.125
-0.125
-0.125
-0.125
-0.125
-0.125
-0.125
-0.125
-0.125
-0.125
-0.125
-0.125
-0.125
-0.125
-0.125
-0.125
-0.125
-0.125
-0.125
-0.125
-0.125
-0.125
-0.125
-0.125
-0.125
-0.125
-0.125
-0.125
-0.125
-0.125
-0.125
-0.125
-0.125
-0.125
-0.125
-0.125
-0.125
-0.125
-0.125
-0.125
-0.125
-0.125
-0.125
-0.125
-0.125
-0.125
-0.125
-0.125
-0.125
-0.125
-0.125
-0.125
-0.125
-0.125
-0.125
-0.125
-0.125
-0.125
-0.125
-0.125
-0.125
-0.125
-0.125
-0.125
-0.125
-0.125
-0.125
-0.125
-0.125
-0.125
-0.125
-0.125
-0.125
-0.125
-0.125
-0.125
-0.125
-0.125
-0.125
-0.125
-0.125
-0.125
-0.125
-0.125
-0.125
-0.125
-0.125
-0.125
-0.125
-0.125
-0.125
-0.125
-0.125
-0.125
-0.125
-0.125
-0.125
-0.125
-0.125
-0.125
-0.125
-0.125
-0.125
-0.125
-0.125
-0.125
-0.125
-0.125
-0.125
-0.125
-0.125
-0.125
-0.125
-0.125
-0.125
-0.125
-0.125
-0.125
-0.125
-0.125
-0.125
-0.125
-0.125
-0.125
-0.125
-0.125
-0.125
-0.125
-0.125
-0.125
-0.125
-0.125
-0.125
-0.125
-0.125
-0.125
-0.125
-0.125
-0.125
-0.125
-0.125
-0.125
-0.125
-0.125
-0.125
-0.125
-0.125
-0.125
-0.125
-0.125
-0.125
-0.125
-0.125
-0.125
-0.125
-0.125
-0.125
-0.125
-0.125
-0.125
-0.125
-0.125
-0.125
-0.125
-0.125
-0.125
-0.125
-0.125
-0.125
-0.125
-0.125
-0.125
-0.125
-0.125
-0.125
-0.125
-0.125
-0.125
-0.125
-0.125
-0.125
-0.125
-0.125
-0.125
-0.125
-0.125
-0.125
-0.125
-0.125
-0.125
-0.125
-0.125
-0.125
-0.125
-0.125
-0.125
-0.125
-0.125
-0.125
-0.125
-0.125
-0.125
-0.125
-0.125
-0.125
-0.125
-0.125
-0.125
-0.125
-0.125
-0.125
-0.125
-0.125
-0.125
-0.125
-0.125
-0.125
-0.125
-0.125
-0.125
-0.125
-0.125
-0.125
-0.125
-0.125
-0.125
-0.125
-0.125
-0.125
-0.125
-0.125
-0.125
-0.125
-0.125
-0.125
-0.125
-0.125
-0.125
-0.125
-0.125
-0.125
-0.125
-0.125
-0.125
-0.125
-0.125
-0.125
-0.125
-0.125
-0.125
-0.125
-0.125
-0.125
-0.125
-0.125
-0.125
-0.125
-0.125
-0.125
-0.125
-0.125
-0.125
-0.125
-0.125
-0.125
-0.125
-0.125
-0.125
-0.125
-0.125
-0.125
-0.125
-0.125
-0.125
-0.125
-0.125
-0.125
-0.125
-0.125
-0.125
-0.125
-0.125
-0.125
-0.125
-0.125
-0.125
-0.125
-0.125
-0.125
-0.125
-0.125
-0.125
-0.125
-0.125
-0.125
-0.125
-0.125
-0.125
-0.125
-0.125
-0.125
-0.125
-0.125
-0.125
-0.125
-0.125
-0.125
-0.125
-0.125
-0.125
-0.125
-0.125
-0.125
-0.125
-0.125
-0.125
-0.125
-0.125
-0.125
-0.125
-0.125
-0.125
-0.125
-0.125
-0.125
-0.125
-0.125
-0.125
-0.125
-0.125
-0.125
-0.125
-0.125
-0.125
-0.1
-0.075
-0.05
-0.025
0.0
0.0375
0.0625
0.0875
0.1125
0.1375
0.175
0.2
0.225
0.25
0.275
0.3125
0.3375
0.3625
0.3875
0.4125
0.4375
0.475
0.5
0.525
0.55
0.575
0.6125
0.6375
0.6625
0.6875
0.7125
0.75
0.7125
0.6875
0.6625
0.6375
0.6125
0.575
0.55
0.525
0.5
0.475
0.4375
0.4125
0.3875
0.3625
0.3375
0.3125
0.275
0.25
0.225
0.2
0.175
0.1375
0.1125
0.0875
0.0625
0.0375
0.0
-0.025
-0.05
-0.075
-0.1
-0.125
-0.15
-0.175
-0.2
-0.225
-0.2
-0.175
-0.15
-0.125
-0.125
-0.125
-0.125
-0.125
-0.125
-0.125
-0.125
-0.125
-0.125
-0.125
-0.125
-0.125
-0.125
-0.125
-0.125
-0.125
-0.125
-0.125
-0.125
-0.125
-0.125
-0.125
-0.125
-0.125
-0.125
-0.125
-0.125
-0.125
-0.125
-0.125
-0.125
-0.125
-0.125
-0.125
-0.125
-0.125
-0.125
-0.125
-0.125
-0.125
-0.125
-0.125
-0.125
-0.125
-0.125
-0.125
-0.125
-0.125
-0.125
-0.125
-0.125
-0.125
-0.125
-0.125
-0.125
-0.125
-0.125
-0.125
-0.125
-0.125
-0.125
-0.125
-0.125
-0.125
-0.125
-0.125
-0.125
-0.125
-0.125
-0.125
-0.125
-0.125
-0.125
-0.125
-0.125
-0.125
-0.125
-0.125
-0.125
-0.125
-0.125
-0.125
-0.125
-0.125
-0.125
-0.125
-0.125
-0.125
-0.125
-0.125
-0.125
-0.125
-0.125
-0.125
-0.125
-0.125
-0.125
-0.125
-0.125
-0.125
-0.125
-0.125
-0.125
-0.125
-0.125
-0.125
-0.125
-0.125
-0.125
-0.125
-0.125
-0.125
-0.125
-0.125
-0.125
-0.125
-0.125
-0.125
-0.125
-0.125
-0.125
-0.125
-0.125
-0.125
-0.125
-0.125
-0.125
-0.125
-0.125
-0.125
-0.125
-0.125
-0.125
-0.125
-0.125
-0.125
-0.125
-0.125
-0.125
-0.125
-0.125
-0.125
-0.125
-0.125
-0.125
-0.125
-0.125
-0.125
-0.125
-0.125
-0.125
-0.125
-0.125
-0.125
-0.125
-0.125
-0.125
-0.125
-0.125
-0.125
-0.125
-0.125
-0.125
-0.125
-0.125
-0.125
-0.125
-0.125
-0.125
-0.125
-0.125
-0.125
-0.125
-0.125
-0.125
-0.125
-0.125
-0.125
-0.125
-0.125
-0.125
-0.125
-0.125
-0.125
-0.125
-0.125
-0.125
-0.125
-0.125
-0.125
-0.125
-0.125
-0.125
-0.125
-0.125
-0.125
-0.125
-0.125
-0.125
-0.125
-0.125
-0.125
-0.125
-0.125
-0.125
-0.125
-0.125
-0.125
-0.125
-0.125
-0.125
-0.125
-0.125
-0.125
-0.125
-0.125
-0.125
-0.125
-0.125
-0.125
-0.125
-0.125
-0.125
-0.125
-0.125
-0.125
-0.125
-0.125
-0.125
-0.125
-0.125
-0.125
-0.125
-0.125
-0.125
-0.125
-0.125
-0.125
-0.125
-0.125
-0.125
-0.125
-0.125
-0.125
-0.125
-0.125
-0.125
-0.125
-0.125
-0.125
-0.125
-0.125
-0.125
-0.125
-0.125
-0.125
-0.125
-0.125
-0.125
-0.125
-0.125
-0.125
-0.125
-0.125
-0.125
-0.125
-0.125
-0.125
-0.125
-0.125
-0.125
-0.125
-0.125
-0.125
-0.125
-0.125
-0.125
-0.125
-0.125
-0.125
-0.125
-0.125
-0.125
-0.125
-0.125
-0.125
-0.125
-0.125
-0.125
-0.125
-0.125
-0.125
-0.125
-0.125
-0.125
-0.125
-0.125
-0.125
-0.125
-0.125
-0.125
-0.125
-0.125
-0.125
-0.125
-0.125
-0.125
-0.125
-0.125
-0.125
-0.125
-0.125
-0.125
-0.125
-0.125
-0.125
-0.125
-0.125
-0.125
-0.125
-0.125
-0.125
-0.125
-0.125
-0.125
-0.125
-0.125
-0.125
-0.125
-0.125
-0.125
-0.125
-0.125
-0.125
-0.125
-0.125
-0.125
-0.125
-0.125
-0.125
-0.125
-0.125
-0.125
-0.125
-0.125
-0.125
-0.125
-0.125
-0.125
-0.125
-0.125
-0.125
-0.125
-0.125
-0.125
-0.125
-0.125
-0.125
-0.125
-0.125
-0.125
-0.125
-0.125
-0.125
-0.125
-0.125
-0.125
-0.125
-0.125
-0.125
-0.125
-0.125
-0.125
-0.125
-0.125
-0.125
-0.125
-0.125
-0.125
-0.125
-0.125
-0.125
-0.125
-0.125
-0.125
-0.125
-0.125
-0.125
-0.125
-0.125
-0.125
-0.125
-0.125
-0.125
-0.125
-0.125
-0.125
-0.125
-0.125
-0.125
-0.125
-0.125
-0.125
-0.125
-0.125
-0.125
-0.125
-0.125
-0.125
-0.125
-0.125
-0.125
-0.125
-0.125
-0.125
-0.125
-0.125
-0.125
-0.125
-0.125
-0.125
-0.125
-0.125
-0.125
-0.125
-0.125
-0.125
-0.125
-0.125
-0.125
-0.125
-0.125
-0.125
-0.125
-0.125
-0.125
-0.125
-0.125
-0.125
-0.125
-0.125
-0.125
-0.125
-0.125
-0.125
-0.125
-0.125
-0.125
-0.125
-0.125
-0.125
-0.125
-0.125
-0.125
-0.125
-0.125
-0.125
-0.125
-0.125
-0.125
-0.125
-0.125
-0.125
-0.125
-0.125
-0.125
-0.125
-0.125
-0.1
-0.075
-0.05
-0.025
0.0
0.0375
0.0625
0.0875
0.1125
0.1375
0.175
0.2
0.225
0.25
0.275
0.3125
0.3375
0.3625
0.3875
0.4125
0.4375
0.475
0.5
0.525
0.55
0.575
0.6125
0.6375
0.6625
0.6875
0.7125
0.75
0.7125
0.6875
0.6625
0.6375
0.6125
0.575
0.55
0.525
0.5
0.475
0.4375
0.4125
0.3875
0.3625
0.3375
0.3125
0.275
0.25
0.225
0.2
0.175
0.1375
0.1125
0.0875
0.0625
0.0375
0.0
-0.025
-0.05
-0.075
-0.1
-0.125
-0.15
-0.175
-0.2
-0.225
-0.2
-0.175
-0.15
-0.125
-0.125
-0.125
-0.125
-0.125
-0.125
-0.125
-0.125
-0.125
-0.125
-0.125
-0.125
-0.125
-0.125
-0.125
-0.125
-0.125
-0.125
-0.125
-0.125
-0.125
-0.125
-0.125
-0.125
-0.125
-0.125
-0.125
-0.125
-0.125
-0.125
-0.125
-0.125
-0.125
-0.125
-0.125
-0.125
-0.125
-0.125
-0.125
-0.125
-0.125
-0.125
-0.125
-0.125
-0.125
-0.125
-0.125
-0.125
-0.125
-0.125
-0.125
-0.125
-0.125
-0.125
-0.125
-0.125
-0.125
-0.125
-0.125
-0.125
-0.125
-0.125
-0.125
-0.125
-0.125
-0.125
-0.125
-0.125
-0.125
-0.125
-0.125
-0.125
-0.125
-0.125
-0.125
-0.125
-0.125
-0.125
-0.125
-0.125
-0.125
-0.125
-0.125
-0.125
-0.125
-0.125
-0.125
-0.125
-0.125
-0.125
-0.125
-0.125
-0.125
-0.125
-0.125
-0.125
-0.125
-0.125
-0.125
-0.125
-0.125
-0.125
-0.125
-0.125
-0.125
-0.125
-0.125
-0.125
-0.125
-0.125
-0.125
-0.125
-0.125
-0.125
-0.125
-0.125
-0.125
-0.125
-0.125
-0.125
-0.125
-0.125
-0.125
-0.125
-0.125
-0.125
-0.125
-0.125
-0.125
-0.125
-0.125
-0.125
-0.125
-0.125
-0.125
-0.125
-0.125
-0.125
-0.125
-0.125
-0.125
-0.125
-0.125
-0.125
-0.125
-0.125
-0.125
-0.125
-0.125
-0.125
-0.125
-0.125
-0.125
-0.125
-0.125
-0.125
-0.125
-0.125
-0.125
-0.125
-0.125
-0.125
-0.125
-0.125
-0.125
-0.125
-0.125
-0.125
-0.125
-0.125
-0.125
-0.125
-0.125
-0.125
-0.125
-0.125
-0.125
-0.125
-0.125
-0.125
-0.125
-0.125
-0.125
-0.125
-0.125
-0.125
-0.125
-0.125
-0.125
-0.125
-0.125
-0.125
-0.125
-0.125
-0.125
-0.125
-0.125
-0.125
-0.125
-0.125
-0.125
-0.125
-0.125
-0.125
-0.125
-0.125
-0.125
-0.125
-0.125
-0.125
-0.125
-0.125
-0.125
-0.125
-0.125
-0.125
-0.125
-0.125
-0.125
-0.125
-0.125
-0.125
-0.125
-0.125
-0.125
-0.125
-0.125
-0.125
-0.125
-0.125
-0.125
-0.125
-0.125
-0.125
-0.125
-0.125
-0.125
-0.125
-0.125
-0.125
-0.125
-0.125
-0.125
-0.125
-0.125
-0.125
-0.125
-0.125
-0.125
-0.125
-0.125
-0.125
-0.125
-0.125
-0.125
-0.125
-0.125
-0.125
-0.125
-0.125
-0.125
-0.125
-0.125
-0.125
-0.125
-0.125
-0.125
-0.125
-0.125
-0.125
-0.125
-0.125
-0.125
-0.125
-0.125
-0.125
-0.125
-0.125
-0.125
-0.125
-0.125
-0.125
-0.125
-0.125
-0.125
-0.125
-0.125
-0.125
-0.125
-0.125
-0.125
-0.125
-0.125
-0.125
-0.125
-0.125
-0.125
-0.125
-0.125
-0.125
-0.125
-0.125
-0.125
-0.125
-0.125
-0.125
-0.125
-0.125
-0.125
-0.125
-0.125
-0.125
-0.125
-0.125
-0.125
-0.125
-0.125
-0.125
-0.125
-0.125
-0.125
-0.125
-0.125
-0.125
-0.125
-0.125
-0.125
-0.125
-0.125
-0.125
-0.125
-0.125
-0.125
-0.125
-0.125
-0.125
-0.125
-0.125
-0.125
-0.125
-0.125
-0.125
-0.125
-0.125
-0.125
-0.125
-0.125
-0.125
-0.125
-0.125
-0.125
-0.125
-0.125
-0.125
-0.125
-0.125
-0.125
-0.125
-0.125
-0.125
-0.125
-0.125
-0.125
-0.125
-0.125
-0.125
-0.125
-0.125
-0.125
-0.125
-0.125
-0.125
-0.125
-0.125
-0.125
-0.125
-0.125
-0.125
-0.125
-0.125
-0.125
-0.125
-0.125
-0.125
-0.125
-0.125
-0.125
-0.125
-0.125
-0.125
-0.125
-0.125
-0.125
-0.125
-0.125
-0.125
-0.125
-0.125
-0.125
-0.125
-0.125
-0.125
-0.125
-0.125
-0.125
-0.125
-0.125
-0.125
-0.125
-0.125
-0.125
-0.125
-0.125
-0.125
-0.125
-0.125
-0.125
-0.125
-0.125
-0.125
-0.125
-0.125
-0.125
-0.125
-0.125
-0.125
-0.125
-0.125
-0.125
-0.125
-0.125
-0.125
-0.125
-0.125
-0.125
-0.125
-0.125
-0.125
-0.125
-0.125
-0.125
-0.125
-0.125
-0.125
-0.125
-0.125
-0.125
-0.125
-0.125
-0.125
-0.125
-0.125
-0.125
-0.125
-0.125
-0.125
-0.125
-0.125
-0.125
-0.125
-0.125
-0.125
-0.125
-0.125
-0.125
-0.125
-0.125
-0.125
-0.125
-0.1
-0.075
-0.05
-0.025
0.0
0.0375
0.0625
0.0875
0.1125
0.1375
0.175
0.2
0.225
0.25
0.275
0.3125
0.3375
0.3625
0.3875
0.4125
0.4375
0.475
0.5
0.525
0.55
0.575
0.6125
0.6375
0.6625
0.6875
0.7125
0.75
0.7125
0.6875
0.6625
0.6375
0.6125
0.575
0.55
0.525
0.5
0.475
0.4375
0.4125
0.3875
0.3625
0.3375
0.3125
0.275
0.25
0.225
0.2
0.175
0.1375
0.1125
0.0875
0.0625
0.0375
0.0
-0.025
-0.05
-0.075
-0.1
-0.125
-0.15
-0.175
-0.2
-0.225
-0.2
-0.175
-0.15
-0.125
-0.125
-0.125
-0.125
-0.125
-0.125
-0.125
-0.125
-0.125
-0.125
-0.125
-0.125
-0.125
-0.125
-0.125
-0.125
-0.125
-0.125
-0.125
-0.125
-0.125
-0.125
-0.125
-0.125
-0.125
-0.125
-0.125
-0.125
-0.125
-0.125
-0.125
-0.125
-0.125
-0.125
-0.125
-0.125
-0.125
-0.125
-0.125
-0.125
-0.125
-0.125
-0.125
-0.125
-0.125
-0.125
-0.125
-0.125
-0.125
-0.125
-0.125
-0.125
-0.125
-0.125
-0.125
-0.125
-0.125
-0.125
-0.125
-0.125
-0.125
-0.125
-0.125
-0.125
-0.125
-0.125
-0.125
-0.125
-0.125
-0.125
-0.125
-0.125
-0.125
-0.125
-0.125
-0.125
-0.125
-0.125
-0.125
-0.125
-0.125
-0.125
-0.125
-0.125
-0.125
-0.125
-0.125
-0.125
-0.125
-0.125
-0.125
-0.125
-0.125
-0.125
-0.125
-0.125
-0.125
-0.125
-0.125
-0.125
-0.125
-0.125
-0.125
-0.125
-0.125
-0.125
-0.125
-0.125
-0.125
-0.125
-0.125
-0.125
-0.125
-0.125
-0.125
-0.125
-0.125
-0.125
-0.125
-0.125
-0.125
-0.125
-0.125
-0.125
-0.125
-0.125
-0.125
-0.125
-0.125
-0.125
-0.125
-0.125
-0.125
-0.125
-0.125
-0.125
-0.125
-0.125
-0.125
-0.125
-0.125
-0.125
-0.125
-0.125
-0.125
-0.125
-0.125
-0.125
-0.125
-0.125
-0.125
-0.125
-0.125
-0.125
-0.125
-0.125
-0.125
-0.125
-0.125
-0.125
-0.125
-0.125
-0.125
-0.125
-0.125
-0.125
-0.125
-0.125
-0.125
-0.125
-0.125
-0.125
-0.125
-0.125
-0.125
-0.125
-0.125
-0.125
-0.125
-0.125
-0.125
-0.125
-0.125
-0.125
-0.125
-0.125
-0.125
-0.125
-0.125
-0.125
-0.125
-0.125
-0.125
-0.125
-0.125
-0.125
-0.125
-0.125
-0.125
-0.125
-0.125
-0.125
-0.125
-0.125
-0.125
-0.125
-0.125
-0.125
-0.125
-0.125
-0.125
-0.125
-0.125
-0.125
-0.125
-0.125
-0.125
-0.125
-0.125
-0.125
-0.125
-0.125
-0.125
-0.125
-0.125
-0.125
-0.125
-0.125
-0.125
-0.125
-0.125
-0.125
-0.125
-0.125
-0.125
-0.125
-0.125
-0.125
-0.125
-0.125
-0.125
-0.125
-0.125
-0.125
-0.125
-0.125
-0.125
-0.125
-0.125
-0.125
-0.125
-0.125
-0.125
-0.125
-0.125
-0.125
-0.125
-0.125
-0.125
-0.125
-0.125
-0.125
-0.125
-0.125
-0.125
-0.125
-0.125
-0.125
-0.125
-0.125
-0.125
-0.125
-0.125
-0.125
-0.125
-0.125
-0.125
-0.125
-0.125
-0.125
-0.125
-0.125
-0.125
-0.125
-0.125
-0.125
-0.125
-0.125
-0.125
-0.125
-0.125
-0.125
-0.125
-0.125
-0.125
-0.125
-0.125
-0.125
-0.125
-0.125
-0.125
-0.125
-0.125
-0.125
-0.125
-0.125
-0.125
-0.125
-0.125
-0.125
-0.125
-0.125
-0.125
-0.125
-0.125
-0.125
-0.125
-0.125
-0.125
-0.125
-0.125
-0.125
-0.125
-0.125
-0.125
-0.125
-0.125
-0.125
-0.125
-0.125
-0.125
-0.125
-0.125
-0.125
-0.125
-0.125
-0.125
-0.125
-0.125
-0.125
-0.125
-0.125
-0.125
-0.125
-0.125
-0.125
-0.125
-0.125
-0.125
-0.125
-0.125
-0.125
-0.125
-0.125
-0.125
-0.125
-0.125
-0.125
-0.125
-0.125
-0.125
-0.125
-0.125
-0.125
-0.125
-0.125
-0.125
-0.125
-0.125
-0.125
-0.125
-0.125
-0.125
-0.125
-0.125
-0.125
-0.125
-0.125
-0.125
-0.125
-0.125
-0.125
-0.125
-0.125
-0.125
-0.125
-0.125
-0.125
-0.125
-0.125
-0.125
-0.125
-0.125
-0.125
-0.125
-0.125
-0.125
-0.125
-0.125
-0.125
-0.125
-0.125
-0.125
-0.125
-0.125
-0.125
-0.125
-0.125
-0.125
-0.125
-0.125
-0.125
-0.125
-0.125
-0.125
-0.125
-0.125
-0.125
-0.125
-0.125
-0.125
-0.125
-0.125
-0.125
-0.125
-0.125
-0.125
-0.125
-0.125
-0.125
-0.125
-0.125
-0.125
-0.125
-0.125
-0.125
-0.125
-0.125
-0.125
-0.125
-0.125
-0.125
-0.125
-0.125
-0.125
-0.125
-0.125
-0.125
-0.125
-0.125
-0.125
-0.125
-0.125
-0.125
-0.125
-0.125
-0.125
-0.125
-0.125
-0.125
-0.125
-0.125
-0.125
-0.125
-0.125
-0.125
-0.125
-0.125
-0.125
-0.1
-0.075
-0.05
-0.025
0.0
0.0375
0.0625
0.0875
0.1125
0.1375
0.175
0.2
0.225
0.25
0.275
0.3125
0.3375
0.3625
0.3875
0.4125
0.4375
0.475
0.5
0.525
0.55
0.575
0.6125
0.6375
0.6625
0.6875
0.7125
0.75
0.7125
0.6875
0.6625
0.6375
0.6125
0.575
0.55
0.525
0.5
0.475
0.4375
0.4125
0.3875
0.3625
0.3375
0.3125
0.275
0.25
0.225
0.2
0.175
0.1375
0.1125
0.0875
0.0625
0.0375
0.0
-0.025
-0.05
-0.075
-0.1
-0.125
-0.15
-0.175
-0.2
-0.225
-0.2
-0.175
-0.15
-0.125
-0.125
-0.125
-0.125
-0.125
-0.125
-0.125
-0.125
-0.125
-0.125
-0.125
-0.125
-0.125
-0.125
-0.125
-0.125
-0.125
-0.125
-0.125
-0.125
-0.125
-0.125
-0.125
-0.125
-0.125
-0.125
-0.125
-0.125
-0.125
-0.125
-0.125
-0.125
-0.125
-0.125
-0.125
-0.125
-0.125
-0.125
-0.125
-0.125
-0.125
-0.125
-0.125
-0.125
-0.125
-0.125
-0.125
-0.125
-0.125
-0.125
-0.125
-0.125
-0.125
-0.125
-0.125
-0.125
-0.125
-0.125
-0.125
-0.125
-0.125
-0.125
-0.125
-0.125
-0.125
-0.125
-0.125
-0.125
-0.125
-0.125
-0.125
-0.125
-0.125
-0.125
-0.125
-0.125
-0.125
-0.125
-0.125
-0.125
-0.125
-0.125
-0.125
-0.125
-0.125
-0.125
-0.125
-0.125
-0.125
-0.125
-0.125
-0.125
-0.125
-0.125
-0.125
-0.125
-0.125
-0.125
-0.125
-0.125
-0.125
-0.125
-0.125
-0.125
-0.125
-0.125
-0.125
-0.125
-0.125
-0.125
-0.125
-0.125
-0.125
-0.125
-0.125
-0.125
-0.125
-0.125
-0.125
-0.125
-0.125
-0.125
-0.125
-0.125
-0.125
-0.125
-0.125
-0.125
-0.125
-0.125
-0.125
-0.125
-0.125
-0.125
-0.125
-0.125
-0.125
-0.125
-0.125
-0.125
-0.125
-0.125
-0.125
-0.125
-0.125
-0.125
-0.125
-0.125
-0.125
-0.125
-0.125
-0.125
-0.125
-0.125
-0.125
-0.125
-0.125
-0.125
-0.125
-0.125
-0.125
-0.125
-0.125
-0.125
-0.125
-0.125
-0.125
-0.125
-0.125
-0.125
-0.125
-0.125
-0.125
-0.125
-0.125
-0.125
-0.125
-0.125
-0.125
-0.125
-0.125
-0.125
-0.125
-0.125
-0.125
-0.125
-0.125
-0.125
-0.125
-0.125
-0.125
-0.125
-0.125
-0.125
-0.125
-0.125
-0.125
-0.125
-0.125
-0.125
-0.125
-0.125
-0.125
-0.125
-0.125
-0.125
-0.125
-0.125
-0.125
-0.125
-0.125
-0.125
-0.125
-0.125
-0.125
-0.125
-0.125
-0.125
-0.125
-0.125
-0.125
-0.125
-0.125
-0.125
-0.125
-0.125
-0.125
-0.125
-0.125
-0.125
-0.125
-0.125
-0.125
-0.125
-0.125
-0.125
-0.125
-0.125
-0.125
-0.125
-0.125
-0.125
-0.125
-0.125
-0.125
-0.125
-0.125
-0.125
-0.125
-0.125
-0.125
-0.125
-0.125
-0.125
-0.125
-0.125
-0.125
-0.125
-0.125
-0.125
-0.125
-0.125
-0.125
-0.125
-0.125
-0.125
-0.125
-0.125
-0.125
-0.125
-0.125
-0.125
-0.125
-0.125
-0.125
-0.125
-0.125
-0.125
-0.125
-0.125
-0.125
-0.125
-0.125
-0.125
-0.125
-0.125
-0.125
-0.125
-0.125
-0.125
-0.125
-0.125
-0.125
-0.125
-0.125
-0.125
-0.125
-0.125
-0.125
-0.125
-0.125
-0.125
-0.125
-0.125
-0.125
-0.125
-0.125
-0.125
-0.125
-0.125
-0.125
-0.125
-0.125
-0.125
-0.125
-0.125
-0.125
-0.125
-0.125
-0.125
-0.125
-0.125
-0.125
-0.125
-0.125
-0.125
-0.125
-0.125
-0.125
-0.125
-0.125
-0.125
-0.125
-0.125
-0.125
-0.125
-0.125
-0.125
-0.125
-0.125
-0.125
-0.125
-0.125
-0.125
-0.125
-0.125
-0.125
-0.125
-0.125
-0.125
-0.125
-0.125
-0.125
-0.125
-0.125
-0.125
-0.125
-0.125
-0.125
-0.125
-0.125
-0.125
-0.125
-0.125
-0.125
-0.125
-0.125
-0.125
-0.125
-0.125
-0.125
-0.125
-0.125
-0.125
-0.125
-0.125
-0.125
-0.125
-0.125
-0.125
-0.125
-0.125
-0.125
-0.125
-0.125
-0.125
-0.125
-0.125
-0.125
-0.125
-0.125
-0.125
-0.125
-0.125
-0.125
-0.125
-0.125
-0.125
-0.125
-0.125
-0.125
-0.125
-0.125
-0.125
-0.125
-0.125
-0.125
-0.125
-0.125
-0.125
-0.125
-0.125
-0.125
-0.125
-0.125
-0.125
-0.125
-0.125
-0.125
-0.125
-0.125
-0.125
-0.125
-0.125
-0.125
-0.125
-0.125
-0.125
-0.125
-0.125
-0.125
-0.125
-0.125
-0.125
-0.125
-0.125
-0.125
-0.125
-0.125
-0.125
-0.125
-0.125
-0.125
-0.125
-0.125
-0.125
-0.125
-0.125
-0.125
-0.125
-0.125
-0.125
-0.125
-0.125
-0.125
-0.125
-0.125
-0.125
-0.125
-0.125
-0.125
-0.125
-0.125
-0.125
-0.125
-0.125
-0.125
-0.125
-0.125
-0.1
-0.075
-0.05
-0.025
0.0
0.0375
0.0625
0.0875
0.1125
0.1375
0.175
0.2
0.225
0.25
0.275
0.3125
0.3375
0.3625
0.3875
0.4125
0.4375
0.475
0.5
0.525
0.55
0.575
0.6125
0.6375
0.6625
0.6875
0.7125
0.75
0.7125
0.6875
0.6625
0.6375
0.6125
0.575
0.55
0.525
0.5
0.475
0.4375
0.4125
0.3875
0.3625
0.3375
0.3125
0.275
0.25
0.225
0.2
0.175
0.1375
0.1125
0.0875
0.0625
0.0375
0.0
-0.025
-0.05
-0.075
-0.1
-0.125
-0.15
-0.175
-0.2
-0.225
-0.2
-0.175
-0.15
-0.125
-0.125
-0.125
-0.125
-0.125
-0.125
-0.125
-0.125
-0.125
-0.125
-0.125
-0.125
-0.125
-0.125
-0.125
-0.125
-0.125
-0.125
-0.125
-0.125
-0.125
-0.125
-0.125
-0.125
-0.125
-0.125
-0.125
-0.125
-0.125
-0.125
-0.125
-0.125
-0.125
-0.125
-0.125
-0.125
-0.125
-0.125
-0.125
-0.125
-0.125
-0.125
-0.125
-0.125
-0.125
-0.125
-0.125
-0.125
-0.125
-0.125
-0.125
-0.125
-0.125
-0.125
-0.125
-0.125
-0.125
-0.125
-0.125
-0.125
-0.125
-0.125
-0.125
-0.125
-0.125
-0.125
-0.125
-0.125
-0.125
-0.125
-0.125
-0.125
-0.125
-0.125
-0.125
-0.125
-0.125
-0.125
-0.125
-0.125
-0.125
-0.125
-0.125
-0.125
-0.125
-0.125
-0.125
-0.125
-0.125
-0.125
-0.125
-0.125
-0.125
-0.125
-0.125
-0.125
-0.125
-0.125
-0.125
-0.125
-0.125
-0.125
-0.125
-0.125
-0.125
-0.125
-0.125
-0.125
-0.125
-0.125
-0.125
-0.125
-0.125
-0.125
-0.125
-0.125
-0.125
-0.125
-0.125
-0.125
-0.125
-0.125
-0.125
-0.125
-0.125
-0.125
-0.125
-0.125
-0.125
-0.125
-0.125
-0.125
-0.125
-0.125
-0.125
-0.125
-0.125
-0.125
-0.125
-0.125
-0.125
-0.125
-0.125
-0.125
-0.125
-0.125
-0.125
-0.125
-0.125
-0.125
-0.125
-0.125
-0.125
-0.125
-0.125
-0.125
-0.125
-0.125
-0.125
-0.125
-0.125
-0.125
-0.125
-0.125
-0.125
-0.125
-0.125
-0.125
-0.125
-0.125
-0.125
-0.125
-0.125
-0.125
-0.125
-0.125
-0.125
-0.125
-0.125
-0.125
-0.125
-0.125
-0.125
-0.125
-0.125
-0.125
-0.125
-0.125
-0.125
-0.125
-0.125
-0.125
-0.125
-0.125
-0.125
-0.125
-0.125
-0.125
-0.125
-0.125
-0.125
-0.125
-0.125
-0.125
-0.125
-0.125
-0.125
-0.125
-0.125
-0.125
-0.125
-0.125
-0.125
-0.125
-0.125
-0.125
-0.125
-0.125
-0.125
-0.125
-0.125
-0.125
-0.125
-0.125
-0.125
-0.125
-0.125
-0.125
-0.125
-0.125
-0.125
-0.125
-0.125
-0.125
-0.125
-0.125
-0.125
-0.125
-0.125
-0.125
-0.125
-0.125
-0.125
-0.125
-0.125
-0.125
-0.125
-0.125
-0.125
-0.125
-0.125
-0.125
-0.125
-0.125
-0.125
-0.125
-0.125
-0.125
-0.125
-0.125
-0.125
-0.125
-0.125
-0.125
-0.125
-0.125
-0.125
-0.125
-0.125
-0.125
-0.125
-0.125
-0.125
-0.125
-0.125
-0.125
-0.125
-0.125
-0.125
-0.125
-0.125
-0.125
-0.125
-0.125
-0.125
-0.125
-0.125
-0.125
-0.125
-0.125
-0.125
-0.125
-0.125
-0.125
-0.125
-0.125
-0.125
-0.125
-0.125
-0.125
-0.125
-0.125
-0.125
-0.125
-0.125
-0.125
-0.125
-0.125
-0.125
-0.125
-0.125
-0.125
-0.125
-0.125
-0.125
-0.125
-0.125
-0.125
-0.125
-0.125
-0.125
-0.125
-0.125
-0.125
-0.125
-0.125
-0.125
-0.125
-0.125
-0.125
-0.125
-0.125
-0.125
-0.125
-0.125
-0.125
-0.125
-0.125
-0.125
-0.125
-0.125
-0.125
-0.125
-0.125
-0.125
-0.125
-0.125
-0.125
-0.125
-0.125
-0.125
-0.125
-0.125
-0.125
-0.125
-0.125
-0.125
-0.125
-0.125
-0.125
-0.125
-0.125
-0.125
-0.125
-0.125
-0.125
-0.125
-0.125
-0.125
-0.125
-0.125
-0.125
-0.125
-0.125
-0.125
-0.125
-0.125
-0.125
-0.125
-0.125
-0.125
-0.125
-0.125
-0.125
-0.125
-0.125
-0.125
-0.125
-0.125
-0.125
-0.125
-0.125
-0.125
-0.125
-0.125
-0.125
-0.125
-0.125
-0.125
-0.125
-0.125
-0.125
-0.125
-0.125
-0.125
-0.125
-0.125
-0.125
-0.125
-0.125
-0.125
-0.125
-0.125
-0.125
-0.125
-0.125
-0.125
-0.125
-0.125
-0.125
-0.125
-0.125
-0.125
-0.125
-0.125
-0.125
-0.125
-0.125
-0.125
-0.125
-0.125
-0.125
-0.125
-0.125
-0.125
-0.125
-0.125
-0.125
-0.125
-0.125
-0.125
-0.125
-0.125
-0.125
-0.125
-0.125
-0.125
-0.125
-0.125
-0.125
-0.125
-0.125
-0.125
-0.125
-0.125
-0.125
-0.125
-0.125
-0.125
-0.125
-0.125
-0.125
-0.125
-0.125
-0.125
-0.125
-0.125
-0.125
-0.125
-0.1
-0.075
-0.05
-0.025
0.0
0.0375
0.0625
0.0875
0.1125
0.1375
0.175
0.2
0.225
0.25
0.275
0.3125
0.3375
0.3625
0.3875
0.4125
0.4375
0.475
0.5
0.525
0.55
0.575
0.6125
0.6375
0.6625
0.6875
0.7125
0.75
0.7125
0.6875
0.6625
0.6375
0.6125
0.575
0.55
0.525
0.5
0.475
0.4375
0.4125
0.3875
0.3625
0.3375
0.3125
0.275
0.25
0.225
0.2
0.175
0.1375
0.1125
0.0875
0.0625
0.0375
0.0
-0.025
-0.05
-0.075
-0.1
-0.125
-0.15
-0.175
-0.2
-0.225
-0.2
-0.175
-0.15
-0.125
-0.125
-0.125
-0.125
-0.125
-0.125
-0.125
-0.125
-0.125
-0.125
-0.125
-0.125
-0.125
-0.125
-0.125
-0.125
-0.125
-0.125
-0.125
-0.125
-0.125
-0.125
-0.125
-0.125
-0.125
-0.125
-0.125
-0.125
-0.125
-0.125
-0.125
-0.125
-0.125
-0.125
-0.125
-0.125
-0.125
-0.125
-0.125
-0.125
-0.125
-0.125
-0.125
-0.125
-0.125
-0.125
-0.125
-0.125
-0.125
-0.125
-0.125
-0.125
-0.125
-0.125
-0.125
-0.125
-0.125
-0.125
-0.125
-0.125
-0.125
-0.125
-0.125
-0.125
-0.125
-0.125
-0.125
-0.125
-0.125
-0.125
-0.125
-0.125
-0.125
-0.125
-0.125
-0.125
-0.125
-0.125
-0.125
-0.125
-0.125
-0.125
-0.125
-0.125
-0.125
-0.125
-0.125
-0.125
-0.125
-0.125
-0.125
-0.125
-0.125
-0.125
-0.125
-0.125
-0.125
-0.125
-0.125
-0.125
-0.125
-0.125
-0.125
-0.125
-0.125
-0.125
-0.125
-0.125
-0.125
-0.125
-0.125
-0.125
-0.125
-0.125
-0.125
-0.125
-0.125
-0.125
-0.125
-0.125
-0.125
-0.125
-0.125
-0.125
-0.125
-0.125
-0.125
-0.125
-0.125
-0.125
-0.125
-0.125
-0.125
-0.125
-0.125
-0.125
-0.125
-0.125
-0.125
-0.125
-0.125
-0.125
-0.125
-0.125
-0.125
-0.125
-0.125
-0.125
-0.125
-0.125
-0.125
-0.125
-0.125
-0.125
-0.125
-0.125
-0.125
-0.125
-0.125
-0.125
-0.125
-0.125
-0.125
-0.125
-0.125
-0.125
-0.125
-0.125
-0.125
-0.125
-0.125
-0.125
-0.125
-0.125
-0.125
-0.125
-0.125
-0.125
-0.125
-0.125
-0.125
-0.125
-0.125
-0.125
-0.125
-0.125
-0.125
-0.125
-0.125
-0.125
-0.125
-0.125
-0.125
-0.125
-0.125
-0.125
-0.125
-0.125
-0.125
-0.125
-0.125
-0.125
-0.125
-0.125
-0.125
-0.125
-0.125
-0.125
-0.125
-0.125
-0.125
-0.125
-0.125
-0.125
-0.125
-0.125
-0.125
-0.125
-0.125
-0.125
-0.125
-0.125
-0.125
-0.125
-0.125
-0.125
-0.125
-0.125
-0.125
-0.125
-0.125
-0.125
-0.125
-0.125
-0.125
-0.125
-0.125
-0.125
-0.125
-0.125
-0.125
-0.125
-0.125
-0.125
-0.125
-0.125
-0.125
-0.125
-0.125
-0.125
-0.125
-0.125
-0.125
-0.125
-0.125
-0.125
-0.125
-0.125
-0.125
-0.125
-0.125
-0.125
-0.125
-0.125
-0.125
-0.125
-0.125
-0.125
-0.125
-0.125
-0.125
-0.125
-0.125
-0.125
-0.125
-0.125
-0.125
-0.125
-0.125
-0.125
-0.125
-0.125
-0.125
-0.125
-0.125
-0.125
-0.125
-0.125
-0.125
-0.125
-0.125
-0.125
-0.125
-0.125
-0.125
-0.125
-0.125
-0.125
-0.125
-0.125
-0.125
-0.125
-0.125
-0.125
-0.125
-0.125
-0.125
-0.125
-0.125
-0.125
-0.125
-0.125
-0.125
-0.125
-0.125
-0.125
-0.125
-0.125
-0.125
-0.125
-0.125
-0.125
-0.125
-0.125
-0.125
-0.125
-0.125
-0.125
-0.125
-0.125
-0.125
-0.125
-0.125
-0.125
-0.125
-0.125
-0.125
-0.125
-0.125
-0.125
-0.125
-0.125
-0.125
-0.125
-0.125
-0.125
-0.125
-0.125
-0.125
-0.125
-0.125
-0.125
-0.125
-0.125
-0.125
-0.125
-0.125
-0.125
-0.125
-0.125
-0.125
-0.125
-0.125
-0.125
-0.125
-0.125
-0.125
-0.125
-0.125
-0.125
-0.125
-0.125
-0.125
-0.125
-0.125
-0.125
-0.125
-0.125
-0.125
-0.125
-0.125
-0.125
-0.125
-0.125
-0.125
-0.125
-0.125
-0.125
-0.125
-0.125
-0.125
-0.125
-0.125
-0.125
-0.125
-0.125
-0.125
-0.125
-0.125
-0.125
-0.125
-0.125
-0.125
-0.125
-0.125
-0.125
-0.125
-0.125
-0.125
-0.125
-0.125
-0.125
-0.125
-0.125
-0.125
-0.125
-0.125
-0.125
-0.125
-0.125
-0.125
-0.125
-0.125
-0.125
-0.125
-0.125
-0.125
-0.125
-0.125
-0.125
-0.125
-0.125
-0.125
-0.125
-0.125
-0.125
-0.125
-0.125
-0.125
-0.125
-0.125
-0.125
-0.125
-0.125
-0.125
-0.125
-0.125
-0.125
-0.125
-0.125
-0.125
-0.125
-0.125
-0.125
-0.125
-0.125
-0.125
-0.125
-0.125
-0.125
-0.125
-0.125
-0.125
-0.125
-0.125
-0.125
-0.125
-0.125
-0.125
-0.1
-0.075
-0.05
-0.025
0.0
0.0375
0.0625
0.0875
0.1125
0.1375
0.175
0.2
0.225
0.25
0.275
0.3125
0.3375
0.3625
0.3875
0.4125
0.4375
0.475
0.5
0.525
0.55
0.575
0.6125
0.6375
0.6625
0.6875
0.7125
0.75
0.7125
0.6875
0.6625
0.6375
0.6125
0.575
0.55
0.525
0.5
0.475
0.4375
0.4125
0.3875
0.3625
0.3375
0.3125
0.275
0.25
0.225
0.2
0.175
0.1375
0.1125
0.0875
0.0625
0.0375
0.0
-0.025
-0.05
-0.075
-0.1
-0.125
-0.15
-0.175
-0.2
-0.225
-0.2
-0.175
-0.15
-0.125
-0.125
-0.125
-0.125
-0.125
-0.125
-0.125
-0.125
-0.125
-0.125
-0.125
-0.125
-0.125
-0.125
-0.125
-0.125
-0.125
-0.125
-0.125
-0.125
-0.125
-0.125
-0.125
-0.125
-0.125
-0.125
-0.125
-0.125
-0.125
-0.125
-0.125
-0.125
-0.125
-0.125
-0.125
-0.125
-0.125
-0.125
-0.125
-0.125
-0.125
-0.125
-0.125
-0.125
-0.125
-0.125
-0.125
-0.125
-0.125
-0.125
-0.125
-0.125
-0.125
-0.125
-0.125
-0.125
-0.125
-0.125
-0.125
-0.125
-0.125
-0.125
-0.125
-0.125
-0.125
-0.125
-0.125
-0.125
-0.125
-0.125
-0.125
-0.125
-0.125
-0.125
-0.125
-0.125
-0.125
-0.125
-0.125
-0.125
-0.125
-0.125
-0.125
-0.125
-0.125
-0.125
-0.125
-0.125
-0.125
-0.125
-0.125
-0.125
-0.125
-0.125
-0.125
-0.125
-0.125
-0.125
-0.125
-0.125
-0.125
-0.125
-0.125
-0.125
-0.125
-0.125
-0.125
-0.125
-0.125
-0.125
-0.125
-0.125
-0.125
-0.125
-0.125
-0.125
-0.125
-0.125
-0.125
-0.125
-0.125
-0.125
-0.125
-0.125
-0.125
-0.125
-0.125
-0.125
-0.125
-0.125
-0.125
-0.125
-0.125
-0.125
-0.125
-0.125
-0.125
-0.125
-0.125
-0.125
-0.125
-0.125
-0.125
-0.125
-0.125
-0.125
-0.125
-0.125
-0.125
-0.125
-0.125
-0.125
-0.125
-0.125
-0.125
-0.125
-0.125
-0.125
-0.125
-0.125
-0.125
-0.125
-0.125
-0.125
-0.125
-0.125
-0.125
-0.125
-0.125
-0.125
-0.125
-0.125
-0.125
-0.125
-0.125
-0.125
-0.125
-0.125
-0.125
-0.125
-0.125
-0.125
-0.125
-0.125
-0.125
-0.125
-0.125
-0.125
-0.125
-0.125
-0.125
-0.125
-0.125
-0.125
-0.125
-0.125
-0.125
-0.125
-0.125
-0.125
-0.125
-0.125
-0.125
-0.125
-0.125
-0.125
-0.125
-0.125
-0.125
-0.125
-0.125
-0.125
-0.125
-0.125
-0.125
-0.125
-0.125
-0.125
-0.125
-0.125
-0.125
-0.125
-0.125
-0.125
-0.125
-0.125
-0.125
-0.125
-0.125
-0.125
-0.125
-0.125
-0.125
-0.125
-0.125
-0.125
-0.125
-0.125
-0.125
-0.125
-0.125
-0.125
-0.125
-0.125
-0.125
-0.125
-0.125
-0.125
-0.125
-0.125
-0.125
-0.125
-0.125
-0.125
-0.125
-0.125
-0.125
-0.125
-0.125
-0.125
-0.125
-0.125
-0.125
-0.125
-0.125
-0.125
-0.125
-0.125
-0.125
-0.125
-0.125
-0.125
-0.125
-0.125
-0.125
-0.125
-0.125
-0.125
-0.125
-0.125
-0.125
-0.125
-0.125
-0.125
-0.125
-0.125
-0.125
-0.125
-0.125
-0.125
-0.125
-0.125
-0.125
-0.125
-0.125
-0.125
-0.125
-0.125
-0.125
-0.125
-0.125
-0.125
-0.125
-0.125
-0.125
-0.125
-0.125
-0.125
-0.125
-0.125
-0.125
-0.125
-0.125
-0.125
-0.125
-0.125
-0.125
-0.125
-0.125
-0.125
-0.125
-0.125
-0.125
-0.125
-0.125
-0.125
-0.125
-0.125
-0.125
-0.125
-0.125
-0.125
-0.125
-0.125
-0.125
-0.125
-0.125
-0.125
-0.125
-0.125
-0.125
-0.125
-0.125
-0.125
-0.125
-0.125
-0.125
-0.125
-0.125
-0.125
-0.125
-0.125
-0.125
-0.125
-0.125
-0.125
-0.125
-0.125
-0.125
-0.125
-0.125
-0.125
-0.125
-0.125
-0.125
-0.125
-0.125
-0.125
-0.125
-0.125
-0.125
-0.125
-0.125
-0.125
-0.125
-0.125
-0.125
-0.125
-0.125
-0.125
-0.125
-0.125
-0.125
-0.125
-0.125
-0.125
-0.125
-0.125
-0.125
-0.125
-0.125
-0.125
-0.125
-0.125
-0.125
-0.125
-0.125
-0.125
-0.125
-0.125
-0.125
-0.125
-0.125
-0.125
-0.125
-0.125
-0.125
-0.125
-0.125
-0.125
-0.125
-0.125
-0.125
-0.125
-0.125
-0.125
-0.125
-0.125
-0.125
-0.125
-0.125
-0.125
-0.125
-0.125
-0.125
-0.125
-0.125
-0.125
-0.125
-0.125
-0.125
-0.125
-0.125
-0.125
-0.125
-0.125
-0.125
-0.125
-0.125
-0.125
-0.125
-0.125
-0.125
-0.125
-0.125
-0.125
-0.125
-0.125
-0.125
-0.125
-0.125
-0.125
-0.125
-0.125
-0.125
-0.125
-0.125
-0.125
-0.125
-0.125
-0.125
-0.125
-0.125
-0.125
-0.125
-0.125
-0.125
-0.125
-0.125
-0.1
-0.075
-0.05
-0.025
0.0
0.0375
0.0625
0.0875
0.1125
0.1375
0.175
0.2
0.225
0.25
0.275
0.3125
0.3375
0.3625
0.3875
0.4125
0.4375
0.475
0.5
0.525
0.55
0.575
0.6125
0.6375
0.6625
0.6875
0.7125
0.75
0.7125
0.6875
0.6625
0.6375
0.6125
0.575
0.55
0.525
0.5
0.475
0.4375
0.4125
0.3875
0.3625
0.3375
0.3125
0.275
0.25
0.225
0.2
0.175
0.1375
0.1125
0.0875
0.0625
0.0375
0.0
-0.025
-0.05
-0.075
-0.1
-0.125
-0.15
-0.175
-0.2
-0.225
-0.2
-0.175
-0.15
-0.125
-0.125
-0.125
-0.125
-0.125
-0.125
-0.125
-0.125
-0.125
-0.125
-0.125
-0.125
-0.125
-0.125
-0.125
-0.125
-0.125
-0.125
-0.125
-0.125
-0.125
-0.125
-0.125
-0.125
-0.125
-0.125
-0.125
-0.125
-0.125
-0.125
-0.125
-0.125
-0.125
-0.125
-0.125
-0.125
-0.125
-0.125
-0.125
-0.125
-0.125
-0.125
-0.125
-0.125
-0.125
-0.125
-0.125
-0.125
-0.125
-0.125
-0.125
-0.125
-0.125
-0.125
-0.125
-0.125
-0.125
-0.125
-0.125
-0.125
-0.125
-0.125
-0.125
-0.125
-0.125
-0.125
-0.125
-0.125
-0.125
-0.125
-0.125
-0.125
-0.125
-0.125
-0.125
-0.125
-0.125
-0.125
-0.125
-0.125
-0.125
-0.125
-0.125
-0.125
-0.125
-0.125
-0.125
-0.125
-0.125
-0.125
-0.125
-0.125
-0.125
-0.125
-0.125
-0.125
-0.125
-0.125
-0.125
-0.125
-0.125
-0.125
-0.125
-0.125
-0.125
-0.125
-0.125
-0.125
-0.125
-0.125
-0.125
-0.125
-0.125
-0.125
-0.125
-0.125
-0.125
-0.125
-0.125
-0.125
-0.125
-0.125
-0.125
-0.125
-0.125
-0.125
-0.125
-0.125
-0.125
-0.125
-0.125
-0.125
-0.125
-0.125
-0.125
-0.125
-0.125
-0.125
-0.125
-0.125
-0.125
-0.125
-0.125
-0.125
-0.125
-0.125
-0.125
-0.125
-0.125
-0.125
-0.125
-0.125
-0.125
-0.125
-0.125
-0.125
-0.125
-0.125
-0.125
-0.125
-0.125
-0.125
-0.125
-0.125
-0.125
-0.125
-0.125
-0.125
-0.125
-0.125
-0.125
-0.125
-0.125
-0.125
-0.125
-0.125
-0.125
-0.125
-0.125
-0.125
-0.125
-0.125
-0.125
-0.125
-0.125
-0.125
-0.125
-0.125
-0.125
-0.125
-0.125
-0.125
-0.125
-0.125
-0.125
-0.125
-0.125
-0.125
-0.125
-0.125
-0.125
-0.125
-0.125
-0.125
-0.125
-0.125
-0.125
-0.125
-0.125
-0.125
-0.125
-0.125
-0.125
-0.125
-0.125
-0.125
-0.125
-0.125
-0.125
-0.125
-0.125
-0.125
-0.125
-0.125
-0.125
-0.125
-0.125
-0.125
-0.125
-0.125
-0.125
-0.125
-0.125
-0.125
-0.125
-0.125
-0.125
-0.125
-0.125
-0.125
-0.125
-0.125
-0.125
-0.125
-0.125
-0.125
-0.125
-0.125
-0.125
-0.125
-0.125
-0.125
-0.125
-0.125
-0.125
-0.125
-0.125
-0.125
-0.125
-0.125
-0.125
-0.125
-0.125
-0.125
-0.125
-0.125
-0.125
-0.125
-0.125
-0.125
-0.125
-0.125
-0.125
-0.125
-0.125
-0.125
-0.125
-0.125
-0.125
-0.125
-0.125
-0.125
-0.125
-0.125
-0.125
-0.125
-0.125
-0.125
-0.125
-0.125
-0.125
-0.125
-0.125
-0.125
-0.125
-0.125
-0.125
-0.125
-0.125
-0.125
-0.125
-0.125
-0.125
-0.125
-0.125
-0.125
-0.125
-0.125
-0.125
-0.125
-0.125
-0.125
-0.125
-0.125
-0.125
-0.125
-0.125
-0.125
-0.125
-0.125
-0.125
-0.125
-0.125
-0.125
-0.125
-0.125
-0.125
-0.125
-0.125
-0.125
-0.125
-0.125
-0.125
-0.125
-0.125
-0.125
-0.125
-0.125
-0.125
-0.125
-0.125
-0.125
-0.125
-0.125
-0.125
-0.125
-0.125
-0.125
-0.125
-0.125
-0.125
-0.125
-0.125
-0.125
-0.125
-0.125
-0.125
-0.125
-0.125
-0.125
-0.125
-0.125
-0.125
-0.125
-0.125
-0.125
-0.125
-0.125
-0.125
-0.125
-0.125
-0.125
-0.125
-0.125
-0.125
-0.125
-0.125
-0.125
-0.125
-0.125
-0.125
-0.125
-0.125
-0.125
-0.125
-0.125
-0.125
-0.125
-0.125
-0.125
-0.125
-0.125
-0.125
-0.125
-0.125
-0.125
-0.125
-0.125
-0.125
-0.125
-0.125
-0.125
-0.125
-0.125
-0.125
-0.125
-0.125
-0.125
-0.125
-0.125
-0.125
-0.125
-0.125
-0.125
-0.125
-0.125
-0.125
-0.125
-0.125
-0.125
-0.125
-0.125
-0.125
-0.125
-0.125
-0.125
-0.125
-0.125
-0.125
-0.125
-0.125
-0.125
-0.125
-0.125
-0.125
-0.125
-0.125
-0.125
-0.125
-0.125
-0.125
-0.125
-0.125
-0.125
-0.125
-0.125
-0.125
-0.125
-0.125
-0.125
-0.125
-0.125
-0.125
-0.125
-0.125
-0.125
-0.125
-0.125
-0.125
-0.125
-0.125
-0.125
-0.125
-0.125
-0.125
-0.125
-0.125
-0.125
-0.125
-0.1
-0.075
-0.05
-0.025
0.0
0.0375
0.0625
0.0875
0.1125
0.1375
0.175
0.2
0.225
0.25
0.275
0.3125
0.3375
0.3625
0.3875
0.4125
0.4375
0.475
0.5
0.525
0.55
0.575
0.6125
0.6375
0.6625
0.6875
0.7125
0.75
0.7125
0.6875
0.6625
0.6375
0.6125
0.575
0.55
0.525
0.5
0.475
0.4375
0.4125
0.3875
0.3625
0.3375
0.3125
0.275
0.25
0.225
0.2
0.175
0.1375
0.1125
0.0875
0.0625
0.0375
0.0
-0.025
-0.05
-0.075
-0.1
-0.125
-0.15
-0.175
-0.2
-0.225
-0.2
-0.175
-0.15
-0.125
-0.125
-0.125
-0.125
-0.125
-0.125
-0.125
-0.125
-0.125
-0.125
-0.125
-0.125
-0.125
-0.125
-0.125
-0.125
-0.125
-0.125
-0.125
-0.125
-0.125
-0.125
-0.125
-0.125
-0.125
-0.125
-0.125
-0.125
-0.125
-0.125
-0.125
-0.125
-0.125
-0.125
-0.125
-0.125
-0.125
-0.125
-0.125
-0.125
-0.125
-0.125
-0.125
-0.125
-0.125
-0.125
-0.125
-0.125
-0.125
-0.125
-0.125
-0.125
-0.125
-0.125
-0.125
-0.125
-0.125
-0.125
-0.125
-0.125
-0.125
-0.125
-0.125
-0.125
-0.125
-0.125
-0.125
-0.125
-0.125
-0.125
-0.125
-0.125
-0.125
-0.125
-0.125
-0.125
-0.125
-0.125
-0.125
-0.125
-0.125
-0.125
-0.125
-0.125
-0.125
-0.125
-0.125
-0.125
-0.125
-0.125
-0.125
-0.125
-0.125
-0.125
-0.125
-0.125
-0.125
-0.125
-0.125
-0.125
-0.125
-0.125
-0.125
-0.125
-0.125
-0.125
-0.125
-0.125
-0.125
-0.125
-0.125
-0.125
-0.125
-0.125
-0.125
-0.125
-0.125
-0.125
-0.125
-0.125
-0.125
-0.125
-0.125
-0.125
-0.125
-0.125
-0.125
-0.125
-0.125
-0.125
-0.125
-0.125
-0.125
-0.125
-0.125
-0.125
-0.125
-0.125
-0.125
-0.125
-0.125
-0.125
-0.125
-0.125
-0.125
-0.125
-0.125
-0.125
-0.125
-0.125
-0.125
-0.125
-0.125
-0.125
-0.125
-0.125
-0.125
-0.125
-0.125
-0.125
-0.125
-0.125
-0.125
-0.125
-0.125
-0.125
-0.125
-0.125
-0.125
-0.125
-0.125
-0.125
-0.125
-0.125
-0.125
-0.125
-0.125
-0.125
-0.125
-0.125
-0.125
-0.125
-0.125
-0.125
-0.125
-0.125
-0.125
-0.125
-0.125
-0.125
-0.125
-0.125
-0.125
-0.125
-0.125
-0.125
-0.125
-0.125
-0.125
-0.125
-0.125
-0.125
-0.125
-0.125
-0.125
-0.125
-0.125
-0.125
-0.125
-0.125
-0.125
-0.125
-0.125
-0.125
-0.125
-0.125
-0.125
-0.125
-0.125
-0.125
-0.125
-0.125
-0.125
-0.125
-0.125
-0.125
-0.125
-0.125
-0.125
-0.125
-0.125
-0.125
-0.125
-0.125
-0.125
-0.125
-0.125
-0.125
-0.125
-0.125
-0.125
-0.125
-0.125
-0.125
-0.125
-0.125
-0.125
-0.125
-0.125
-0.125
-0.125
-0.125
-0.125
-0.125
-0.125
-0.125
-0.125
-0.125
-0.125
-0.125
-0.125
-0.125
-0.125
-0.125
-0.125
-0.125
-0.125
-0.125
-0.125
-0.125
-0.125
-0.125
-0.125
-0.125
-0.125
-0.125
-0.125
-0.125
-0.125
-0.125
-0.125
-0.125
-0.125
-0.125
-0.125
-0.125
-0.125
-0.125
-0.125
-0.125
-0.125
-0.125
-0.125
-0.125
-0.125
-0.125
-0.125
-0.125
-0.125
-0.125
-0.125
-0.125
-0.125
-0.125
-0.125
-0.125
-0.125
-0.125
-0.125
-0.125
-0.125
-0.125
-0.125
-0.125
-0.125
-0.125
-0.125
-0.125
-0.125
-0.125
-0.125
-0.125
-0.125
-0.125
-0.125
-0.125
-0.125
-0.125
-0.125
-0.125
-0.125
-0.125
-0.125
-0.125
-0.125
-0.125
-0.125
-0.125
-0.125
-0.125
-0.125
-0.125
-0.125
-0.125
-0.125
-0.125
-0.125
-0.125
-0.125
-0.125
-0.125
-0.125
-0.125
-0.125
-0.125
-0.125
-0.125
-0.125
-0.125
-0.125
-0.125
-0.125
-0.125
-0.125
-0.125
-0.125
-0.125
-0.125
-0.125
-0.125
-0.125
-0.125
-0.125
-0.125
-0.125
-0.125
-0.125
-0.125
-0.125
-0.125
-0.125
-0.125
-0.125
-0.125
-0.125
-0.125
-0.125
-0.125
-0.125
-0.125
-0.125
-0.125
-0.125
-0.125
-0.125
-0.125
-0.125
-0.125
-0.125
-0.125
-0.125
-0.125
-0.125
-0.125
-0.125
-0.125
-0.125
-0.125
-0.125
-0.125
-0.125
-0.125
-0.125
-0.125
-0.125
-0.125
-0.125
-0.125
-0.125
-0.125
-0.125
-0.125
-0.125
-0.125
-0.125
-0.125
-0.125
-0.125
-0.125
-0.125
-0.125
-0.125
-0.125
-0.125
-0.125
-0.125
-0.125
-0.125
-0.125
-0.125
-0.125
-0.125
-0.125
-0.125
-0.125
-0.125
-0.125
-0.125
-0.125
-0.125
-0.125
-0.125
-0.125
-0.125
-0.125
-0.125
-0.125
-0.125
-0.125
-0.125
-0.125
-0.125
-0.125
-0.125
-0.125
-0.125
-0.125
-0.125
-0.125
-0.1
-0.075
-0.05
-0.025
0.0
0.0375
0.0625
0.0875
0.1125
0.1375
0.175
0.2
0.225
0.25
0.275
0.3125
0.3375
0.3625
0.3875
0.4125
0.4375
0.475
0.5
0.525
0.55
0.575
0.6125
0.6375
0.6625
0.6875
0.7125
0.75
0.7125
0.6875
0.6625
0.6375
0.6125
0.575
0.55
0.525
0.5
0.475
0.4375
0.4125
0.3875
0.3625
0.3375
0.3125
0.275
0.25
0.225
0.2
0.175
0.1375
0.1125
0.0875
0.0625
0.0375
0.0
-0.025
-0.05
-0.075
-0.1
-0.125
-0.15
-0.175
-0.2
-0.225
-0.2
-0.175
-0.15
-0.125
-0.125
-0.125
-0.125
-0.125
-0.125
-0.125
-0.125
-0.125
-0.125
-0.125
-0.125
-0.125
-0.125
-0.125
-0.125
-0.125
-0.125
-0.125
-0.125
-0.125
-0.125
-0.125
-0.125
-0.125
-0.125
-0.125
-0.125
-0.125
-0.125
-0.125
-0.125
-0.125
-0.125
-0.125
-0.125
-0.125
-0.125
-0.125
-0.125
-0.125
-0.125
-0.125
-0.125
-0.125
-0.125
-0.125
-0.125
-0.125
-0.125
-0.125
-0.125
-0.125
-0.125
-0.125
-0.125
-0.125
-0.125
-0.125
-0.125
-0.125
-0.125
-0.125
-0.125
-0.125
-0.125
-0.125
-0.125
-0.125
-0.125
-0.125
-0.125
-0.125
-0.125
-0.125
-0.125
-0.125
-0.125
-0.125
-0.125
-0.125
-0.125
-0.125
-0.125
-0.125
-0.125
-0.125
-0.125
-0.125
-0.125
-0.125
-0.125
-0.125
-0.125
-0.125
-0.125
-0.125
-0.125
-0.125
-0.125
-0.125
-0.125
-0.125
-0.125
-0.125
-0.125
-0.125
-0.125
-0.125
-0.125
-0.125
-0.125
-0.125
-0.125
-0.125
-0.125
-0.125
-0.125
-0.125
-0.125
-0.125
-0.125
-0.125
-0.125
-0.125
-0.125
-0.125
-0.125
-0.125
-0.125
-0.125
-0.125
-0.125
-0.125
-0.125
-0.125
-0.125
-0.125
-0.125
-0.125
-0.125
-0.125
-0.125
-0.125
-0.125
-0.125
-0.125
-0.125
-0.125
-0.125
-0.125
-0.125
-0.125
-0.125
-0.125
-0.125
-0.125
-0.125
-0.125
-0.125
-0.125
-0.125
-0.125
-0.125
-0.125
-0.125
-0.125
-0.125
-0.125
-0.125
-0.125
-0.125
-0.125
-0.125
-0.125
-0.125
-0.125
-0.125
-0.125
-0.125
-0.125
-0.125
-0.125
-0.125
-0.125
-0.125
-0.125
-0.125
-0.125
-0.125
-0.125
-0.125
-0.125
-0.125
-0.125
-0.125
-0.125
-0.125
-0.125
-0.125
-0.125
-0.125
-0.125
-0.125
-0.125
-0.125
-0.125
-0.125
-0.125
-0.125
-0.125
-0.125
-0.125
-0.125
-0.125
-0.125
-0.125
-0.125
-0.125
-0.125
-0.125
-0.125
-0.125
-0.125
-0.125
-0.125
-0.125
-0.125
-0.125
-0.125
-0.125
-0.125
-0.125
-0.125
-0.125
-0.125
-0.125
-0.125
-0.125
-0.125
-0.125
-0.125
-0.125
-0.125
-0.125
-0.125
-0.125
-0.125
-0.125
-0.125
-0.125
-0.125
-0.125
-0.125
-0.125
-0.125
-0.125
-0.125
-0.125
-0.125
-0.125
-0.125
-0.125
-0.125
-0.125
-0.125
-0.125
-0.125
-0.125
-0.125
-0.125
-0.125
-0.125
-0.125
-0.125
-0.125
-0.125
-0.125
-0.125
-0.125
-0.125
-0.125
-0.125
-0.125
-0.125
-0.125
-0.125
-0.125
-0.125
-0.125
-0.125
-0.125
-0.125
-0.125
-0.125
-0.125
-0.125
-0.125
-0.125
-0.125
-0.125
-0.125
-0.125
-0.125
-0.125
-0.125
-0.125
-0.125
-0.125
-0.125
-0.125
-0.125
-0.125
-0.125
-0.125
-0.125
-0.125
-0.125
-0.125
-0.125
-0.125
-0.125
-0.125
-0.125
-0.125
-0.125
-0.125
-0.125
-0.125
-0.125
-0.125
-0.125
-0.125
-0.125
-0.125
-0.125
-0.125
-0.125
-0.125
-0.125
-0.125
-0.125
-0.125
-0.125
-0.125
-0.125
-0.125
-0.125
-0.125
-0.125
-0.125
-0.125
-0.125
-0.125
-0.125
-0.125
-0.125
-0.125
-0.125
-0.125
-0.125
-0.125
-0.125
-0.125
-0.125
-0.125
-0.125
-0.125
-0.125
-0.125
-0.125
-0.125
-0.125
-0.125
-0.125
-0.125
-0.125
-0.125
-0.125
-0.125
-0.125
-0.125
-0.125
-0.125
-0.125
-0.125
-0.125
-0.125
-0.125
-0.125
-0.125
-0.125
-0.125
-0.125
-0.125
-0.125
-0.125
-0.125
-0.125
-0.125
-0.125
-0.125
-0.125
-0.125
-0.125
-0.125
-0.125
-0.125
-0.125
-0.125
-0.125
-0.125
-0.125
-0.125
-0.125
-0.125
-0.125
-0.125
-0.125
-0.125
-0.125
-0.125
-0.125
-0.125
-0.125
-0.125
-0.125
-0.125
-0.125
-0.125
-0.125
-0.125
-0.125
-0.125
-0.125
-0.125
-0.125
-0.125
-0.125
-0.125
-0.125
-0.125
-0.125
-0.125
-0.125
-0.125
-0.125
-0.125
-0.125
-0.125
-0.125
-0.125
-0.125
-0.125
-0.125
-0.125
-0.125
-0.125
-0.125
-0.125
-0.125
-0.125
-0.125
-0.125
-0.125
-0.125
-0.125
-0.125
-0.125
-0.1
-0.075
-0.05
-0.025
0.0
0.0375
0.0625
0.0875
0.1125
0.1375
0.175
0.2
0.225
0.25
0.275
0.3125
0.3375
0.3625
0.3875
0.4125
0.4375
0.475
0.5
0.525
0.55
0.575
0.6125
0.6375
0.6625
0.6875
0.7125
0.75
0.7125
0.6875
0.6625
0.6375
0.6125
0.575
0.55
0.525
0.5
0.475
0.4375
0.4125
0.3875
0.3625
0.3375
0.3125
0.275
0.25
0.225
0.2
0.175
0.1375
0.1125
0.0875
0.0625
0.0375
0.0
-0.025
-0.05
-0.075
-0.1
-0.125
-0.15
-0.175
-0.2
-0.225
-0.2
-0.175
-0.15
-0.125
-0.125
-0.125
-0.125
-0.125
-0.125
-0.125
-0.125
-0.125
-0.125
-0.125
-0.125
-0.125
-0.125
-0.125
-0.125
-0.125
-0.125
-0.125
-0.125
-0.125
-0.125
-0.125
-0.125
-0.125
-0.125
-0.125
-0.125
-0.125
-0.125
-0.125
-0.125
-0.125
-0.125
-0.125
-0.125
-0.125
-0.125
-0.125
-0.125
-0.125
-0.125
-0.125
-0.125
-0.125
-0.125
-0.125
-0.125
-0.125
-0.125
-0.125
-0.125
-0.125
-0.125
-0.125
-0.125
-0.125
-0.125
-0.125
-0.125
-0.125
-0.125
-0.125
-0.125
-0.125
-0.125
-0.125
-0.125
-0.125
-0.125
-0.125
-0.125
-0.125
-0.125
-0.125
-0.125
-0.125
-0.125
-0.125
-0.125
-0.125
-0.125
-0.125
-0.125
-0.125
-0.125
-0.125
-0.125
-0.125
-0.125
-0.125
-0.125
-0.125
-0.125
-0.125
-0.125
-0.125
-0.125
-0.125
-0.125
-0.125
-0.125
-0.125
-0.125
-0.125
-0.125
-0.125
-0.125
-0.125
-0.125
-0.125
-0.125
-0.125
-0.125
-0.125
-0.125
-0.125
-0.125
-0.125
-0.125
-0.125
-0.125
-0.125
-0.125
-0.125
-0.125
-0.125
-0.125
-0.125
-0.125
-0.125
-0.125
-0.125
-0.125
-0.125
-0.125
-0.125
-0.125
-0.125
-0.125
-0.125
-0.125
-0.125
-0.125
-0.125
-0.125
-0.125
-0.125
-0.125
-0.125
-0.125
-0.125
-0.125
-0.125
-0.125
-0.125
-0.125
-0.125
-0.125
-0.125
-0.125
-0.125
-0.125
-0.125
-0.125
-0.125
-0.125
-0.125
-0.125
-0.125
-0.125
-0.125
-0.125
-0.125
-0.125
-0.125
-0.125
-0.125
-0.125
-0.125
-0.125
-0.125
-0.125
-0.125
-0.125
-0.125
-0.125
-0.125
-0.125
-0.125
-0.125
-0.125
-0.125
-0.125
-0.125
-0.125
-0.125
-0.125
-0.125
-0.125
-0.125
-0.125
-0.125
-0.125
-0.125
-0.125
-0.125
-0.125
-0.125
-0.125
-0.125
-0.125
-0.125
-0.125
-0.125
-0.125
-0.125
-0.125
-0.125
-0.125
-0.125
-0.125
-0.125
-0.125
-0.125
-0.125
-0.125
-0.125
-0.125
-0.125
-0.125
-0.125
-0.125
-0.125
-0.125
-0.125
-0.125
-0.125
-0.125
-0.125
-0.125
-0.125
-0.125
-0.125
-0.125
-0.125
-0.125
-0.125
-0.125
-0.125
-0.125
-0.125
-0.125
-0.125
-0.125
-0.125
-0.125
-0.125
-0.125
-0.125
-0.125
-0.125
-0.125
-0.125
-0.125
-0.125
-0.125
-0.125
-0.125
-0.125
-0.125
-0.125
-0.125
-0.125
-0.125
-0.125
-0.125
-0.125
-0.125
-0.125
-0.125
-0.125
-0.125
-0.125
-0.125
-0.125
-0.125
-0.125
-0.125
-0.125
-0.125
-0.125
-0.125
-0.125
-0.125
-0.125
-0.125
-0.125
-0.125
-0.125
-0.125
-0.125
-0.125
-0.125
-0.125
-0.125
-0.125
-0.125
-0.125
-0.125
-0.125
-0.125
-0.125
-0.125
-0.125
-0.125
-0.125
-0.125
-0.125
-0.125
-0.125
-0.125
-0.125
-0.125
-0.125
-0.125
-0.125
-0.125
-0.125
-0.125
-0.125
-0.125
-0.125
-0.125
-0.125
-0.125
-0.125
-0.125
-0.125
-0.125
-0.125
-0.125
-0.125
-0.125
-0.125
-0.125
-0.125
-0.125
-0.125
-0.125
-0.125
-0.125
-0.125
-0.125
-0.125
-0.125
-0.125
-0.125
-0.125
-0.125
-0.125
-0.125
-0.125
-0.125
-0.125
-0.125
-0.125
-0.125
-0.125
-0.125
-0.125
-0.125
-0.125
-0.125
-0.125
-0.125
-0.125
-0.125
-0.125
-0.125
-0.125
-0.125
-0.125
-0.125
-0.125
-0.125
-0.125
-0.125
-0.125
-0.125
-0.125
-0.125
-0.125
-0.125
-0.125
-0.125
-0.125
-0.125
-0.125
-0.125
-0.125
-0.125
-0.125
-0.125
-0.125
-0.125
-0.125
-0.125
-0.125
-0.125
-0.125
-0.125
-0.125
-0.125
-0.125
-0.125
-0.125
-0.125
-0.125
-0.125
-0.125
-0.125
-0.125
-0.125
-0.125
-0.125
-0.125
-0.125
-0.125
-0.125
-0.125
-0.125
-0.125
-0.125
-0.125
-0.125
-0.125
-0.125
-0.125
-0.125
-0.125
-0.125
-0.125
-0.125
-0.125
-0.125
-0.125
-0.125
-0.125
-0.125
-0.125
-0.125
-0.125
-0.125
-0.125
-0.125
-0.125
-0.125
-0.125
-0.125
-0.125
-0.125
-0.125
-0.125
-0.125
-0.125
-0.125
-0.125
-0.125
-0.1
-0.075
-0.05
-0.025
0.0
0.0375
0.0625
0.0875
0.1125
0.1375
0.175
0.2
0.225
0.25
0.275
0.3125
0.3375
0.3625
0.3875
0.4125
0.4375
0.475
0.5
0.525
0.55
0.575
0.6125
0.6375
0.6625
0.6875
0.7125
0.75
0.7125
0.6875
0.6625
0.6375
0.6125
0.575
0.55
0.525
0.5
0.475
0.4375
0.4125
0.3875
0.3625
0.3375
0.3125
0.275
0.25
0.225
0.2
0.175
0.1375
0.1125
0.0875
0.0625
0.0375
0.0
-0.025
-0.05
-0.075
-0.1
-0.125
-0.15
-0.175
-0.2
-0.225
-0.2
-0.175
-0.15
-0.125
-0.125
-0.125
-0.125
-0.125
-0.125
-0.125
-0.125
-0.125
-0.125
-0.125
-0.125
-0.125
-0.125
-0.125
-0.125
-0.125
-0.125
-0.125
-0.125
-0.125
-0.125
-0.125
-0.125
-0.125
-0.125
-0.125
-0.125
-0.125
-0.125
-0.125
-0.125
-0.125
-0.125
-0.125
-0.125
-0.125
-0.125
-0.125
-0.125
-0.125
-0.125
-0.125
-0.125
-0.125
-0.125
-0.125
-0.125
-0.125
-0.125
-0.125
-0.125
-0.125
-0.125
-0.125
-0.125
-0.125
-0.125
-0.125
-0.125
-0.125
-0.125
-0.125
-0.125
-0.125
-0.125
-0.125
-0.125
-0.125
-0.125
-0.125
-0.125
-0.125
-0.125
-0.125
-0.125
-0.125
-0.125
-0.125
-0.125
-0.125
-0.125
-0.125
-0.125
-0.125
-0.125
-0.125
-0.125
-0.125
-0.125
-0.125
-0.125
-0.125
-0.125
-0.125
-0.125
-0.125
-0.125
-0.125
-0.125
-0.125
-0.125
-0.125
-0.125
-0.125
-0.125
-0.125
-0.125
-0.125
-0.125
-0.125
-0.125
-0.125
-0.125
-0.125
-0.125
-0.125
-0.125
-0.125
-0.125
-0.125
-0.125
-0.125
-0.125
-0.125
-0.125
-0.125
-0.125
-0.125
-0.125
-0.125
-0.125
-0.125
-0.125
-0.125
-0.125
-0.125
-0.125
-0.125
-0.125
-0.125
-0.125
-0.125
-0.125
-0.125
-0.125
-0.125
-0.125
-0.125
-0.125
-0.125
-0.125
-0.125
-0.125
-0.125
-0.125
-0.125
-0.125
-0.125
-0.125
-0.125
-0.125
-0.125
-0.125
-0.125
-0.125
-0.125
-0.125
-0.125
-0.125
-0.125
-0.125
-0.125
-0.125
-0.125
-0.125
-0.125
-0.125
-0.125
-0.125
-0.125
-0.125
-0.125
-0.125
-0.125
-0.125
-0.125
-0.125
-0.125
-0.125
-0.125
-0.125
-0.125
-0.125
-0.125
-0.125
-0.125
-0.125
-0.125
-0.125
-0.125
-0.125
-0.125
-0.125
-0.125
-0.125
-0.125
-0.125
-0.125
-0.125
-0.125
-0.125
-0.125
-0.125
-0.125
-0.125
-0.125
-0.125
-0.125
-0.125
-0.125
-0.125
-0.125
-0.125
-0.125
-0.125
-0.125
-0.125
-0.125
-0.125
-0.125
-0.125
-0.125
-0.125
-0.125
-0.125
-0.125
-0.125
-0.125
-0.125
-0.125
-0.125
-0.125
-0.125
-0.125
-0.125
-0.125
-0.125
-0.125
-0.125
-0.125
-0.125
-0.125
-0.125
-0.125
-0.125
-0.125
-0.125
-0.125
-0.125
-0.125
-0.125
-0.125
-0.125
-0.125
-0.125
-0.125
-0.125
-0.125
-0.125
-0.125
-0.125
-0.125
-0.125
-0.125
-0.125
-0.125
-0.125
-0.125
-0.125
-0.125
-0.125
-0.125
-0.125
-0.125
-0.125
-0.125
-0.125
-0.125
-0.125
-0.125
-0.125
-0.125
-0.125
-0.125
-0.125
-0.125
-0.125
-0.125
-0.125
-0.125
-0.125
-0.125
-0.125
-0.125
-0.125
-0.125
-0.125
-0.125
-0.125
-0.125
-0.125
-0.125
-0.125
-0.125
-0.125
-0.125
-0.125
-0.125
-0.125
-0.125
-0.125
-0.125
-0.125
-0.125
-0.125
-0.125
-0.125
-0.125
-0.125
-0.125
-0.125
-0.125
-0.125
-0.125
-0.125
-0.125
-0.125
-0.125
-0.125
-0.125
-0.125
-0.125
-0.125
-0.125
-0.125
-0.125
-0.125
-0.125
-0.125
-0.125
-0.125
-0.125
-0.125
-0.125
-0.125
-0.125
-0.125
-0.125
-0.125
-0.125
-0.125
-0.125
-0.125
-0.125
-0.125
-0.125
-0.125
-0.125
-0.125
-0.125
-0.125
-0.125
-0.125
-0.125
-0.125
-0.125
-0.125
-0.125
-0.125
-0.125
-0.125
-0.125
-0.125
-0.125
-0.125
-0.125
-0.125
-0.125
-0.125
-0.125
-0.125
-0.125
-0.125
-0.125
-0.125
-0.125
-0.125
-0.125
-0.125
-0.125
-0.125
-0.125
-0.125
-0.125
-0.125
-0.125
-0.125
-0.125
-0.125
-0.125
-0.125
-0.125
-0.125
-0.125
-0.125
-0.125
-0.125
-0.125
-0.125
-0.125
-0.125
-0.125
-0.125
-0.125
-0.125
-0.125
-0.125
-0.125
-0.125
-0.125
-0.125
-0.125
-0.125
-0.125
-0.125
-0.125
-0.125
-0.125
-0.125
-0.125
-0.125
-0.125
-0.125
-0.125
-0.125
-0.125
-0.125
-0.125
-0.125
-0.125
-0.125
-0.125
-0.125
-0.125
-0.125
-0.125
-0.125
-0.125
-0.125
-0.125
-0.125
-0.125
-0.125
-0.125
-0.125
-0.125
-0.125
-0.125
-0.1
-0.075
-0.05
-0.025
0.0
0.0375
0.0625
0.0875
0.1125
0.1375
0.175
0.2
0.225
0.25
0.275
0.3125
0.3375
0.3625
0.3875
0.4125
0.4375
0.475
0.5
0.525
0.55
0.575
0.6125
0.6375
0.6625
0.6875
0.7125
0.75
0.7125
0.6875
0.6625
0.6375
0.6125
0.575
0.55
0.525
0.5
0.475
0.4375
0.4125
0.3875
0.3625
0.3375
0.3125
0.275
0.25
0.225
0.2
0.175
0.1375
0.1125
0.0875
0.0625
0.0375
0.0
-0.025
-0.05
-0.075
-0.1
-0.125
-0.15
-0.175
-0.2
-0.225
-0.2
-0.175
-0.15
-0.125
-0.125
-0.125
-0.125
-0.125
-0.125
-0.125
-0.125
-0.125
-0.125
-0.125
-0.125
-0.125
-0.125
-0.125
-0.125
-0.125
-0.125
-0.125
-0.125
-0.125
-0.125
-0.125
-0.125
-0.125
-0.125
-0.125
-0.125
-0.125
-0.125
-0.125
-0.125
-0.125
-0.125
-0.125
-0.125
-0.125
-0.125
-0.125
-0.125
-0.125
-0.125
-0.125
-0.125
-0.125
-0.125
-0.125
-0.125
-0.125
-0.125
-0.125
-0.125
-0.125
-0.125
-0.125
-0.125
-0.125
-0.125
-0.125
-0.125
-0.125
-0.125
-0.125
-0.125
-0.125
-0.125
-0.125
-0.125
-0.125
-0.125
-0.125
-0.125
-0.125
-0.125
-0.125
-0.125
-0.125
-0.125
-0.125
-0.125
-0.125
-0.125
-0.125
-0.125
-0.125
-0.125
-0.125
-0.125
-0.125
-0.125
-0.125
-0.125
-0.125
-0.125
-0.125
-0.125
-0.125
-0.125
-0.125
-0.125
-0.125
-0.125
-0.125
-0.125
-0.125
-0.125
-0.125
-0.125
-0.125
-0.125
-0.125
-0.125
-0.125
-0.125
-0.125
-0.125
-0.125
-0.125
-0.125
-0.125
-0.125
-0.125
-0.125
-0.125
-0.125
-0.125
-0.125
-0.125
-0.125
-0.125
-0.125
-0.125
-0.125
-0.125
-0.125
-0.125
-0.125
-0.125
-0.125
-0.125
-0.125
-0.125
-0.125
-0.125
-0.125
-0.125
-0.125
-0.125
-0.125
-0.125
-0.125
-0.125
-0.125
-0.125
-0.125
-0.125
-0.125
-0.125
-0.125
-0.125
-0.125
-0.125
-0.125
-0.125
-0.125
-0.125
-0.125
-0.125
-0.125
-0.125
-0.125
-0.125
-0.125
-0.125
-0.125
-0.125
-0.125
-0.125
-0.125
-0.125
-0.125
-0.125
-0.125
-0.125
-0.125
-0.125
-0.125
-0.125
-0.125
-0.125
-0.125
-0.125
-0.125
-0.125
-0.125
-0.125
-0.125
-0.125
-0.125
-0.125
-0.125
-0.125
-0.125
-0.125
-0.125
-0.125
-0.125
-0.125
-0.125
-0.125
-0.125
-0.125
-0.125
-0.125
-0.125
-0.125
-0.125
-0.125
-0.125
-0.125
-0.125
-0.125
-0.125
-0.125
-0.125
-0.125
-0.125
-0.125
-0.125
-0.125
-0.125
-0.125
-0.125
-0.125
-0.125
-0.125
-0.125
-0.125
-0.125
-0.125
-0.125
-0.125
-0.125
-0.125
-0.125
-0.125
-0.125
-0.125
-0.125
-0.125
-0.125
-0.125
-0.125
-0.125
-0.125
-0.125
-0.125
-0.125
-0.125
-0.125
-0.125
-0.125
-0.125
-0.125
-0.125
-0.125
-0.125
-0.125
-0.125
-0.125
-0.125
-0.125
-0.125
-0.125
-0.125
-0.125
-0.125
-0.125
-0.125
-0.125
-0.125
-0.125
-0.125
-0.125
-0.125
-0.125
-0.125
-0.125
-0.125
-0.125
-0.125
-0.125
-0.125
-0.125
-0.125
-0.125
-0.125
-0.125
-0.125
-0.125
-0.125
-0.125
-0.125
-0.125
-0.125
-0.125
-0.125
-0.125
-0.125
-0.125
-0.125
-0.125
-0.125
-0.125
-0.125
-0.125
-0.125
-0.125
-0.125
-0.125
-0.125
-0.125
-0.125
-0.125
-0.125
-0.125
-0.125
-0.125
-0.125
-0.125
-0.125
-0.125
-0.125
-0.125
-0.125
-0.125
-0.125
-0.125
-0.125
-0.125
-0.125
-0.125
-0.125
-0.125
-0.125
-0.125
-0.125
-0.125
-0.125
-0.125
-0.125
-0.125
-0.125
-0.125
-0.125
-0.125
-0.125
-0.125
-0.125
-0.125
-0.125
-0.125
-0.125
-0.125
-0.125
-0.125
-0.125
-0.125
-0.125
-0.125
-0.125
-0.125
-0.125
-0.125
-0.125
-0.125
-0.125
-0.125
-0.125
-0.125
-0.125
-0.125
-0.125
-0.125
-0.125
-0.125
-0.125
-0.125
-0.125
-0.125
-0.125
-0.125
-0.125
-0.125
-0.125
-0.125
-0.125
-0.125
-0.125
-0.125
-0.125
-0.125
-0.125
-0.125
-0.125
-0.125
-0.125
-0.125
-0.125
-0.125
-0.125
-0.125
-0.125
-0.125
-0.125
-0.125
-0.125
-0.125
-0.125
-0.125
-0.125
-0.125
-0.125
-0.125
-0.125
-0.125
-0.125
-0.125
-0.125
-0.125
-0.125
-0.125
-0.125
-0.125
-0.125
-0.125
-0.125
-0.125
-0.125
-0.125
-0.125
-0.125
-0.125
-0.125
-0.125
-0.125
-0.125
-0.125
-0.125
-0.125
-0.125
-0.125
-0.125
-0.125
-0.125
-0.125
-0.125
-0.125
-0.125
-0.125
-0.125
-0.125
-0.125
-0.125
-0.125
-0.125
-0.125
-0.125
-0.125
-0.1
-0.075
-0.05
-0.025
0.0
0.0375
0.0625
0.0875
0.1125
0.1375
0.175
0.2
0.225
0.25
0.275
0.3125
0.3375
0.3625
0.3875
0.4125
0.4375
0.475
0.5
0.525
0.55
0.575
0.6125
0.6375
0.6625
0.6875
0.7125
0.75
0.7125
0.6875
0.6625
0.6375
0.6125
0.575
0.55
0.525
0.5
0.475
0.4375
0.4125
0.3875
0.3625
0.3375
0.3125
0.275
0.25
0.225
0.2
0.175
0.1375
0.1125
0.0875
0.0625
0.0375
0.0
-0.025
-0.05
-0.075
-0.1
-0.125
-0.15
-0.175
-0.2
-0.225
-0.2
-0.175
-0.15
-0.125
-0.125
-0.125
-0.125
-0.125
-0.125
-0.125
-0.125
-0.125
-0.125
-0.125
-0.125
-0.125
-0.125
-0.125
-0.125
-0.125
-0.125
-0.125
-0.125
-0.125
-0.125
-0.125
-0.125
-0.125
-0.125
-0.125
-0.125
-0.125
-0.125
-0.125
-0.125
-0.125
-0.125
-0.125
-0.125
-0.125
-0.125
-0.125
-0.125
-0.125
-0.125
-0.125
-0.125
-0.125
-0.125
-0.125
-0.125
-0.125
-0.125
-0.125
-0.125
-0.125
-0.125
-0.125
-0.125
-0.125
-0.125
-0.125
-0.125
-0.125
-0.125
-0.125
-0.125
-0.125
-0.125
-0.125
-0.125
-0.125
-0.125
-0.125
-0.125
-0.125
-0.125
-0.125
-0.125
-0.125
-0.125
-0.125
-0.125
-0.125
-0.125
-0.125
-0.125
-0.125
-0.125
-0.125
-0.125
-0.125
-0.125
-0.125
-0.125
-0.125
-0.125
-0.125
-0.125
-0.125
-0.125
-0.125
-0.125
-0.125
-0.125
-0.125
-0.125
-0.125
-0.125
-0.125
-0.125
-0.125
-0.125
-0.125
-0.125
-0.125
-0.125
-0.125
-0.125
-0.125
-0.125
-0.125
-0.125
-0.125
-0.125
-0.125
-0.125
-0.125
-0.125
-0.125
-0.125
-0.125
-0.125
-0.125
-0.125
-0.125
-0.125
-0.125
-0.125
-0.125
-0.125
-0.125
-0.125
-0.125
-0.125
-0.125
-0.125
-0.125
-0.125
-0.125
-0.125
-0.125
-0.125
-0.125
-0.125
-0.125
-0.125
-0.125
-0.125
-0.125
-0.125
-0.125
-0.125
-0.125
-0.125
-0.125
-0.125
-0.125
-0.125
-0.125
-0.125
-0.125
-0.125
-0.125
-0.125
-0.125
-0.125
-0.125
-0.125
-0.125
-0.125
-0.125
-0.125
-0.125
-0.125
-0.125
-0.125
-0.125
-0.125
-0.125
-0.125
-0.125
-0.125
-0.125
-0.125
-0.125
-0.125
-0.125
-0.125
-0.125
-0.125
-0.125
-0.125
-0.125
-0.125
-0.125
-0.125
-0.125
-0.125
-0.125
-0.125
-0.125
-0.125
-0.125
-0.125
-0.125
-0.125
-0.125
-0.125
-0.125
-0.125
-0.125
-0.125
-0.125
-0.125
-0.125
-0.125
-0.125
-0.125
-0.125
-0.125
-0.125
-0.125
-0.125
-0.125
-0.125
-0.125
-0.125
-0.125
-0.125
-0.125
-0.125
-0.125
-0.125
-0.125
-0.125
-0.125
-0.125
-0.125
-0.125
-0.125
-0.125
-0.125
-0.125
-0.125
-0.125
-0.125
-0.125
-0.125
-0.125
-0.125
-0.125
-0.125
-0.125
-0.125
-0.125
-0.125
-0.125
-0.125
-0.125
-0.125
-0.125
-0.125
-0.125
-0.125
-0.125
-0.125
-0.125
-0.125
-0.125
-0.125
-0.125
-0.125
-0.125
-0.125
-0.125
-0.125
-0.125
-0.125
-0.125
-0.125
-0.125
-0.125
-0.125
-0.125
-0.125
-0.125
-0.125
-0.125
-0.125
-0.125
-0.125
-0.125
-0.125
-0.125
-0.125
-0.125
-0.125
-0.125
-0.125
-0.125
-0.125
-0.125
-0.125
-0.125
-0.125
-0.125
-0.125
-0.125
-0.125
-0.125
-0.125
-0.125
-0.125
-0.125
-0.125
-0.125
-0.125
-0.125
-0.125
-0.125
-0.125
-0.125
-0.125
-0.125
-0.125
-0.125
-0.125
-0.125
-0.125
-0.125
-0.125
-0.125
-0.125
-0.125
-0.125
-0.125
-0.125
-0.125
-0.125
-0.125
-0.125
-0.125
-0.125
-0.125
-0.125
-0.125
-0.125
-0.125
-0.125
-0.125
-0.125
-0.125
-0.125
-0.125
-0.125
-0.125
-0.125
-0.125
-0.125
-0.125
-0.125
-0.125
-0.125
-0.125
-0.125
-0.125
-0.125
-0.125
-0.125
-0.125
-0.125
-0.125
-0.125
-0.125
-0.125
-0.125
-0.125
-0.125
-0.125
-0.125
-0.125
-0.125
-0.125
-0.125
-0.125
-0.125
-0.125
-0.125
-0.125
-0.125
-0.125
-0.125
-0.125
-0.125
-0.125
-0.125
-0.125
-0.125
-0.125
-0.125
-0.125
-0.125
-0.125
-0.125
-0.125
-0.125
-0.125
-0.125
-0.125
-0.125
-0.125
-0.125
-0.125
-0.125
-0.125
-0.125
-0.125
-0.125
-0.125
-0.125
-0.125
-0.125
-0.125
-0.125
-0.125
-0.125
-0.125
-0.125
-0.125
-0.125
-0.125
-0.125
-0.125
-0.125
-0.125
-0.125
-0.125
-0.125
-0.125
-0.125
-0.125
-0.125
-0.125
-0.125
-0.125
-0.125
-0.125
-0.125
-0.125
-0.125
-0.125
-0.125
-0.125
-0.125
-0.125
-0.125
-0.125
-0.125
-0.125
-0.125
-0.125
-0.1
-0.075
-0.05
-0.025
0.0
0.0375
0.0625
0.0875
0.1125
0.1375
0.175
0.2
0.225
0.25
0.275
0.3125
0.3375
0.3625
0.3875
0.4125
0.4375
0.475
0.5
0.525
0.55
0.575
0.6125
0.6375
0.6625
0.6875
0.7125
0.75
0.7125
0.6875
0.6625
0.6375
0.6125
0.575
0.55
0.525
0.5
0.475
0.4375
0.4125
0.3875
0.3625
0.3375
0.3125
0.275
0.25
0.225
0.2
0.175
0.1375
0.1125
0.0875
0.0625
0.0375
0.0
-0.025
-0.05
-0.075
-0.1
-0.125
-0.15
-0.175
-0.2
-0.225
-0.2
-0.175
-0.15
-0.125
-0.125
-0.125
-0.125
-0.125
-0.125
-0.125
-0.125
-0.125
-0.125
-0.125
-0.125
-0.125
-0.125
-0.125
-0.125
-0.125
-0.125
-0.125
-0.125
-0.125
-0.125
-0.125
-0.125
-0.125
-0.125
-0.125
-0.125
-0.125
-0.125
-0.125
-0.125
-0.125
-0.125
-0.125
-0.125
-0.125
-0.125
-0.125
-0.125
-0.125
-0.125
-0.125
-0.125
-0.125
-0.125
-0.125
-0.125
-0.125
-0.125
-0.125
-0.125
-0.125
-0.125
-0.125
-0.125
-0.125
-0.125
-0.125
-0.125
-0.125
-0.125
-0.125
-0.125
-0.125
-0.125
-0.125
-0.125
-0.125
-0.125
-0.125
-0.125
-0.125
-0.125
-0.125
-0.125
-0.125
-0.125
-0.125
-0.125
-0.125
-0.125
-0.125
-0.125
-0.125
-0.125
-0.125
-0.125
-0.125
-0.125
-0.125
-0.125
-0.125
-0.125
-0.125
-0.125
-0.125
-0.125
-0.125
-0.125
-0.125
-0.125
-0.125
-0.125
-0.125
-0.125
-0.125
-0.125
-0.125
-0.125
-0.125
-0.125
-0.125
-0.125
-0.125
-0.125
-0.125
-0.125
-0.125
-0.125
-0.125
-0.125
-0.125
-0.125
-0.125
-0.125
-0.125
-0.125
-0.125
-0.125
-0.125
-0.125
-0.125
-0.125
-0.125
-0.125
-0.125
-0.125
-0.125
-0.125
-0.125
-0.125
-0.125
-0.125
-0.125
-0.125
-0.125
-0.125
-0.125
-0.125
-0.125
-0.125
-0.125
-0.125
-0.125
-0.125
-0.125
-0.125
-0.125
-0.125
-0.125
-0.125
-0.125
-0.125
-0.125
-0.125
-0.125
-0.125
-0.125
-0.125
-0.125
-0.125
-0.125
-0.125
-0.125
-0.125
-0.125
-0.125
-0.125
-0.125
-0.125
-0.125
-0.125
-0.125
-0.125
-0.125
-0.125
-0.125
-0.125
-0.125
-0.125
-0.125
-0.125
-0.125
-0.125
-0.125
-0.125
-0.125
-0.125
-0.125
-0.125
-0.125
-0.125
-0.125
-0.125
-0.125
-0.125
-0.125
-0.125
-0.125
-0.125
-0.125
-0.125
-0.125
-0.125
-0.125
-0.125
-0.125
-0.125
-0.125
-0.125
-0.125
-0.125
-0.125
-0.125
-0.125
-0.125
-0.125
-0.125
-0.125
-0.125
-0.125
-0.125
-0.125
-0.125
-0.125
-0.125
-0.125
-0.125
-0.125
-0.125
-0.125
-0.125
-0.125
-0.125
-0.125
-0.125
-0.125
-0.125
-0.125
-0.125
-0.125
-0.125
-0.125
-0.125
-0.125
-0.125
-0.125
-0.125
-0.125
-0.125
-0.125
-0.125
-0.125
-0.125
-0.125
-0.125
-0.125
-0.125
-0.125
-0.125
-0.125
-0.125
-0.125
-0.125
-0.125
-0.125
-0.125
-0.125
-0.125
-0.125
-0.125
-0.125
-0.125
-0.125
-0.125
-0.125
-0.125
-0.125
-0.125
-0.125
-0.125
-0.125
-0.125
-0.125
-0.125
-0.125
-0.125
-0.125
-0.125
-0.125
-0.125
-0.125
-0.125
-0.125
-0.125
-0.125
-0.125
-0.125
-0.125
-0.125
-0.125
-0.125
-0.125
-0.125
-0.125
-0.125
-0.125
-0.125
-0.125
-0.125
-0.125
-0.125
-0.125
-0.125
-0.125
-0.125
-0.125
-0.125
-0.125
-0.125
-0.125
-0.125
-0.125
-0.125
-0.125
-0.125
-0.125
-0.125
-0.125
-0.125
-0.125
-0.125
-0.125
-0.125
-0.125
-0.125
-0.125
-0.125
-0.125
-0.125
-0.125
-0.125
-0.125
-0.125
-0.125
-0.125
-0.125
-0.125
-0.125
-0.125
-0.125
-0.125
-0.125
-0.125
-0.125
-0.125
-0.125
-0.125
-0.125
-0.125
-0.125
-0.125
-0.125
-0.125
-0.125
-0.125
-0.125
-0.125
-0.125
-0.125
-0.125
-0.125
-0.125
-0.125
-0.125
-0.125
-0.125
-0.125
-0.125
-0.125
-0.125
-0.125
-0.125
-0.125
-0.125
-0.125
-0.125
-0.125
-0.125
-0.125
-0.125
-0.125
-0.125
-0.125
-0.125
-0.125
-0.125
-0.125
-0.125
-0.125
-0.125
-0.125
-0.125
-0.125
-0.125
-0.125
-0.125
-0.125
-0.125
-0.125
-0.125
-0.125
-0.125
-0.125
-0.125
-0.125
-0.125
-0.125
-0.125
-0.125
-0.125
-0.125
-0.125
-0.125
-0.125
-0.125
-0.125
-0.125
-0.125
-0.125
-0.125
-0.125
-0.125
-0.125
-0.125
-0.125
-0.125
-0.125
-0.125
-0.125
-0.125
-0.125
-0.125
-0.125
-0.125
-0.125
-0.125
-0.125
-0.125
-0.125
-0.125
-0.125
-0.125
-0.125
-0.125
-0.125
-0.125
-0.125
-0.1
-0.075
-0.05
-0.025
0.0
0.0375
0.0625
0.0875
0.1125
0.1375
0.175
0.2
0.225
0.25
0.275
0.3125
0.3375
0.3625
0.3875
0.4125
0.4375
0.475
0.5
0.525
0.55
0.575
0.6125
0.6375
0.6625
0.6875
0.7125
0.75
0.7125
0.6875
0.6625
0.6375
0.6125
0.575
0.55
0.525
0.5
0.475
0.4375
0.4125
0.3875
0.3625
0.3375
0.3125
0.275
0.25
0.225
0.2
0.175
0.1375
0.1125
0.0875
0.0625
0.0375
0.0
-0.025
-0.05
-0.075
-0.1
-0.125
-0.15
-0.175
-0.2
-0.225
-0.2
-0.175
-0.15
-0.125
-0.125
-0.125
-0.125
-0.125
-0.125
-0.125
-0.125
-0.125
-0.125
-0.125
-0.125
-0.125
-0.125
-0.125
-0.125
-0.125
-0.125
-0.125
-0.125
-0.125
-0.125
-0.125
-0.125
-0.125
-0.125
-0.125
-0.125
-0.125
-0.125
-0.125
-0.125
-0.125
-0.125
-0.125
-0.125
-0.125
-0.125
-0.125
-0.125
-0.125
-0.125
-0.125
-0.125
-0.125
-0.125
-0.125
-0.125
-0.125
-0.125
-0.125
-0.125
-0.125
-0.125
-0.125
-0.125
-0.125
-0.125
-0.125
-0.125
-0.125
-0.125
-0.125
-0.125
-0.125
-0.125
-0.125
-0.125
-0.125
-0.125
-0.125
-0.125
-0.125
-0.125
-0.125
-0.125
-0.125
-0.125
-0.125
-0.125
-0.125
-0.125
-0.125
-0.125
-0.125
-0.125
-0.125
-0.125
-0.125
-0.125
-0.125
-0.125
-0.125
-0.125
-0.125
-0.125
-0.125
-0.125
-0.125
-0.125
-0.125
-0.125
-0.125
-0.125
-0.125
-0.125
-0.125
-0.125
-0.125
-0.125
-0.125
-0.125
-0.125
-0.125
-0.125
-0.125
-0.125
-0.125
-0.125
-0.125
-0.125
-0.125
-0.125
-0.125
-0.125
-0.125
-0.125
-0.125
-0.125
-0.125
-0.125
-0.125
-0.125
-0.125
-0.125
-0.125
-0.125
-0.125
-0.125
-0.125
-0.125
-0.125
-0.125
-0.125
-0.125
-0.125
-0.125
-0.125
-0.125
-0.125
-0.125
-0.125
-0.125
-0.125
-0.125
-0.125
-0.125
-0.125
-0.125
-0.125
-0.125
-0.125
-0.125
-0.125
-0.125
-0.125
-0.125
-0.125
-0.125
-0.125
-0.125
-0.125
-0.125
-0.125
-0.125
-0.125
-0.125
-0.125
-0.125
-0.125
-0.125
-0.125
-0.125
-0.125
-0.125
-0.125
-0.125
-0.125
-0.125
-0.125
-0.125
-0.125
-0.125
-0.125
-0.125
-0.125
-0.125
-0.125
-0.125
-0.125
-0.125
-0.125
-0.125
-0.125
-0.125
-0.125
-0.125
-0.125
-0.125
-0.125
-0.125
-0.125
-0.125
-0.125
-0.125
-0.125
-0.125
-0.125
-0.125
-0.125
-0.125
-0.125
-0.125
-0.125
-0.125
-0.125
-0.125
-0.125
-0.125
-0.125
-0.125
-0.125
-0.125
-0.125
-0.125
-0.125
-0.125
-0.125
-0.125
-0.125
-0.125
-0.125
-0.125
-0.125
-0.125
-0.125
-0.125
-0.125
-0.125
-0.125
-0.125
-0.125
-0.125
-0.125
-0.125
-0.125
-0.125
-0.125
-0.125
-0.125
-0.125
-0.125
-0.125
-0.125
-0.125
-0.125
-0.125
-0.125
-0.125
-0.125
-0.125
-0.125
-0.125
-0.125
-0.125
-0.125
-0.125
-0.125
-0.125
-0.125
-0.125
-0.125
-0.125
-0.125
-0.125
-0.125
-0.125
-0.125
-0.125
-0.125
-0.125
-0.125
-0.125
-0.125
-0.125
-0.125
-0.125
-0.125
-0.125
-0.125
-0.125
-0.125
-0.125
-0.125
-0.125
-0.125
-0.125
-0.125
-0.125
-0.125
-0.125
-0.125
-0.125
-0.125
-0.125
-0.125
-0.125
-0.125
-0.125
-0.125
-0.125
-0.125
-0.125
-0.125
-0.125
-0.125
-0.125
-0.125
-0.125
-0.125
-0.125
-0.125
-0.125
-0.125
-0.125
-0.125
-0.125
-0.125
-0.125
-0.125
-0.125
-0.125
-0.125
-0.125
-0.125
-0.125
-0.125
-0.125
-0.125
-0.125
-0.125
-0.125
-0.125
-0.125
-0.125
-0.125
-0.125
-0.125
-0.125
-0.125
-0.125
-0.125
-0.125
-0.125
-0.125
-0.125
-0.125
-0.125
-0.125
-0.125
-0.125
-0.125
-0.125
-0.125
-0.125
-0.125
-0.125
-0.125
-0.125
-0.125
-0.125
-0.125
-0.125
-0.125
-0.125
-0.125
-0.125
-0.125
-0.125
-0.125
-0.125
-0.125
-0.125
-0.125
-0.125
-0.125
-0.125
-0.125
-0.125
-0.125
-0.125
-0.125
-0.125
-0.125
-0.125
-0.125
-0.125
-0.125
-0.125
-0.125
-0.125
-0.125
-0.125
-0.125
-0.125
-0.125
-0.125
-0.125
-0.125
-0.125
-0.125
-0.125
-0.125
-0.125
-0.125
-0.125
-0.125
-0.125
-0.125
-0.125
-0.125
-0.125
-0.125
-0.125
-0.125
-0.125
-0.125
-0.125
-0.125
-0.125
-0.125
-0.125
-0.125
-0.125
-0.125
-0.125
-0.125
-0.125
-0.125
-0.125
-0.125
-0.125
-0.125
-0.125
-0.125
-0.125
-0.125
-0.125
-0.125
-0.125
-0.125
-0.125
-0.125
-0.125
-0.125
-0.125
-0.125
-0.125
-0.125
-0.1
-0.075
-0.05
-0.025
0.0
0.0375
0.0625
0.0875
0.1125
0.1375
0.175
0.2
0.225
0.25
0.275
0.3125
0.3375
0.3625
0.3875
0.4125
0.4375
0.475
0.5
0.525
0.55
0.575
0.6125
0.6375
0.6625
0.6875
0.7125
0.75
0.7125
0.6875
0.6625
0.6375
0.6125
0.575
0.55
0.525
0.5
0.475
0.4375
0.4125
0.3875
0.3625
0.3375
0.3125
0.275
0.25
0.225
0.2
0.175
0.1375
0.1125
0.0875
0.0625
0.0375
0.0
-0.025
-0.05
-0.075
-0.1
-0.125
-0.15
-0.175
-0.2
-0.225
-0.2
-0.175
-0.15
-0.125
-0.125
-0.125
-0.125
-0.125
-0.125
-0.125
-0.125
-0.125
-0.125
-0.125
-0.125
-0.125
-0.125
-0.125
-0.125
-0.125
-0.125
-0.125
-0.125
-0.125
-0.125
-0.125
-0.125
-0.125
-0.125
-0.125
-0.125
-0.125
-0.125
-0.125
-0.125
-0.125
-0.125
-0.125
-0.125
-0.125
-0.125
-0.125
-0.125
-0.125
-0.125
-0.125
-0.125
-0.125
-0.125
-0.125
-0.125
-0.125
-0.125
-0.125
-0.125
-0.125
-0.125
-0.125
-0.125
-0.125
-0.125
-0.125
-0.125
-0.125
-0.125
-0.125
-0.125
-0.125
-0.125
-0.125
-0.125
-0.125
-0.125
-0.125
-0.125
-0.125
-0.125
-0.125
-0.125
-0.125
-0.125
-0.125
-0.125
-0.125
-0.125
-0.125
-0.125
-0.125
-0.125
-0.125
-0.125
-0.125
-0.125
-0.125
-0.125
-0.125
-0.125
-0.125
-0.125
-0.125
-0.125
-0.125
-0.125
-0.125
-0.125
-0.125
-0.125
-0.125
-0.125
-0.125
-0.125
-0.125
-0.125
-0.125
-0.125
-0.125
-0.125
-0.125
-0.125
-0.125
-0.125
-0.125
-0.125
-0.125
-0.125
-0.125
-0.125
-0.125
-0.125
-0.125
-0.125
-0.125
-0.125
-0.125
-0.125
-0.125
-0.125
-0.125
-0.125
-0.125
-0.125
-0.125
-0.125
-0.125
-0.125
-0.125
-0.125
-0.125
-0.125
-0.125
-0.125
-0.125
-0.125
-0.125
-0.125
-0.125
-0.125
-0.125
-0.125
-0.125
-0.125
-0.125
-0.125
-0.125
-0.125
-0.125
-0.125
-0.125
-0.125
-0.125
-0.125
-0.125
-0.125
-0.125
-0.125
-0.125
-0.125
-0.125
-0.125
-0.125
-0.125
-0.125
-0.125
-0.125
-0.125
-0.125
-0.125
-0.125
-0.125
-0.125
-0.125
-0.125
-0.125
-0.125
-0.125
-0.125
-0.125
-0.125
-0.125
-0.125
-0.125
-0.125
-0.125
-0.125
-0.125
-0.125
-0.125
-0.125
-0.125
-0.125
-0.125
-0.125
-0.125
-0.125
-0.125
-0.125
-0.125
-0.125
-0.125
-0.125
-0.125
-0.125
-0.125
-0.125
-0.125
-0.125
-0.125
-0.125
-0.125
-0.125
-0.125
-0.125
-0.125
-0.125
-0.125
-0.125
-0.125
-0.125
-0.125
-0.125
-0.125
-0.125
-0.125
-0.125
-0.125
-0.125
-0.125
-0.125
-0.125
-0.125
-0.125
-0.125
-0.125
-0.125
-0.125
-0.125
-0.125
-0.125
-0.125
-0.125
-0.125
-0.125
-0.125
-0.125
-0.125
-0.125
-0.125
-0.125
-0.125
-0.125
-0.125
-0.125
-0.125
-0.125
-0.125
-0.125
-0.125
-0.125
-0.125
-0.125
-0.125
-0.125
-0.125
-0.125
-0.125
-0.125
-0.125
-0.125
-0.125
-0.125
-0.125
-0.125
-0.125
-0.125
-0.125
-0.125
-0.125
-0.125
-0.125
-0.125
-0.125
-0.125
-0.125
-0.125
-0.125
-0.125
-0.125
-0.125
-0.125
-0.125
-0.125
-0.125
-0.125
-0.125
-0.125
-0.125
-0.125
-0.125
-0.125
-0.125
-0.125
-0.125
-0.125
-0.125
-0.125
-0.125
-0.125
-0.125
-0.125
-0.125
-0.125
-0.125
-0.125
-0.125
-0.125
-0.125
-0.125
-0.125
-0.125
-0.125
-0.125
-0.125
-0.125
-0.125
-0.125
-0.125
-0.125
-0.125
-0.125
-0.125
-0.125
-0.125
-0.125
-0.125
-0.125
-0.125
-0.125
-0.125
-0.125
-0.125
-0.125
-0.125
-0.125
-0.125
-0.125
-0.125
-0.125
-0.125
-0.125
-0.125
-0.125
-0.125
-0.125
-0.125
-0.125
-0.125
-0.125
-0.125
-0.125
-0.125
-0.125
-0.125
-0.125
-0.125
-0.125
-0.125
-0.125
-0.125
-0.125
-0.125
-0.125
-0.125
-0.125
-0.125
-0.125
-0.125
-0.125
-0.125
-0.125
-0.125
-0.125
-0.125
-0.125
-0.125
-0.125
-0.125
-0.125
-0.125
-0.125
-0.125
-0.125
-0.125
-0.125
-0.125
-0.125
-0.125
-0.125
-0.125
-0.125
-0.125
-0.125
-0.125
-0.125
-0.125
-0.125
-0.125
-0.125
-0.125
-0.125
-0.125
-0.125
-0.125
-0.125
-0.125
-0.125
-0.125
-0.125
-0.125
-0.125
-0.125
-0.125
-0.125
-0.125
-0.125
-0.125
-0.125
-0.125
-0.125
-0.125
-0.125
-0.125
-0.125
-0.125
-0.125
-0.125
-0.125
-0.125
-0.125
-0.125
-0.125
-0.125
-0.125
-0.125
-0.125
-0.125
-0.125
-0.125
-0.125
-0.125
-0.125
-0.125
-0.125
-0.1
-0.075
-0.05
-0.025
0.0
0.0375
0.0625
0.0875
0.1125
0.1375
0.175
0.2
0.225
0.25
0.275
0.3125
0.3375
0.3625
0.3875
0.4125
0.4375
0.475
0.5
0.525
0.55
0.575
0.6125
0.6375
0.6625
0.6875
0.7125
0.75
0.7125
0.6875
0.6625
0.6375
0.6125
0.575
0.55
0.525
0.5
0.475
0.4375
0.4125
0.3875
0.3625
0.3375
0.3125
0.275
0.25
0.225
0.2
0.175
0.1375
0.1125
0.0875
0.0625
0.0375
0.0
-0.025
-0.05
-0.075
-0.1
-0.125
-0.15
-0.175
-0.2
-0.225
-0.2
-0.175
-0.15
-0.125
-0.125
-0.125
-0.125
-0.125
-0.125
-0.125
-0.125
-0.125
-0.125
-0.125
-0.125
-0.125
-0.125
-0.125
-0.125
-0.125
-0.125
-0.125
-0.125
-0.125
-0.125
-0.125
-0.125
-0.125
-0.125
-0.125
-0.125
-0.125
-0.125
-0.125
-0.125
-0.125
-0.125
-0.125
-0.125
-0.125
-0.125
-0.125
-0.125
-0.125
-0.125
-0.125
-0.125
-0.125
-0.125
-0.125
-0.125
-0.125
-0.125
-0.125
-0.125
-0.125
-0.125
-0.125
-0.125
-0.125
-0.125
-0.125
-0.125
-0.125
-0.125
-0.125
-0.125
-0.125
-0.125
-0.125
-0.125
-0.125
-0.125
-0.125
-0.125
-0.125
-0.125
-0.125
-0.125
-0.125
-0.125
-0.125
-0.125
-0.125
-0.125
-0.125
-0.125
-0.125
-0.125
-0.125
-0.125
-0.125
-0.125
-0.125
-0.125
-0.125
-0.125
-0.125
-0.125
-0.125
-0.125
-0.125
-0.125
-0.125
-0.125
-0.125
-0.125
-0.125
-0.125
-0.125
-0.125
-0.125
-0.125
-0.125
-0.125
-0.125
-0.125
-0.125
-0.125
-0.125
-0.125
-0.125
-0.125
-0.125
-0.125
-0.125
-0.125
-0.125
-0.125
-0.125
-0.125
-0.125
-0.125
-0.125
-0.125
-0.125
-0.125
-0.125
-0.125
-0.125
-0.125
-0.125
-0.125
-0.125
-0.125
-0.125
-0.125
-0.125
-0.125
-0.125
-0.125
-0.125
-0.125
-0.125
-0.125
-0.125
-0.125
-0.125
-0.125
-0.125
-0.125
-0.125
-0.125
-0.125
-0.125
-0.125
-0.125
-0.125
-0.125
-0.125
-0.125
-0.125
-0.125
-0.125
-0.125
-0.125
-0.125
-0.125
-0.125
-0.125
-0.125
-0.125
-0.125
-0.125
-0.125
-0.125
-0.125
-0.125
-0.125
-0.125
-0.125
-0.125
-0.125
-0.125
-0.125
-0.125
-0.125
-0.125
-0.125
-0.125
-0.125
-0.125
-0.125
-0.125
-0.125
-0.125
-0.125
-0.125
-0.125
-0.125
-0.125
-0.125
-0.125
-0.125
-0.125
-0.125
-0.125
-0.125
-0.125
-0.125
-0.125
-0.125
-0.125
-0.125
-0.125
-0.125
-0.125
-0.125
-0.125
-0.125
-0.125
-0.125
-0.125
-0.125
-0.125
-0.125
-0.125
-0.125
-0.125
-0.125
-0.125
-0.125
-0.125
-0.125
-0.125
-0.125
-0.125
-0.125
-0.125
-0.125
-0.125
-0.125
-0.125
-0.125
-0.125
-0.125
-0.125
-0.125
-0.125
-0.125
-0.125
-0.125
-0.125
-0.125
-0.125
-0.125
-0.125
-0.125
-0.125
-0.125
-0.125
-0.125
-0.125
-0.125
-0.125
-0.125
-0.125
-0.125
-0.125
-0.125
-0.125
-0.125
-0.125
-0.125
-0.125
-0.125
-0.125
-0.125
-0.125
-0.125
-0.125
-0.125
-0.125
-0.125
-0.125
-0.125
-0.125
-0.125
-0.125
-0.125
-0.125
-0.125
-0.125
-0.125
-0.125
-0.125
-0.125
-0.125
-0.125
-0.125
-0.125
-0.125
-0.125
-0.125
-0.125
-0.125
-0.125
-0.125
-0.125
-0.125
-0.125
-0.125
-0.125
-0.125
-0.125
-0.125
-0.125
-0.125
-0.125
-0.125
-0.125
-0.125
-0.125
-0.125
-0.125
-0.125
-0.125
-0.125
-0.125
-0.125
-0.125
-0.125
-0.125
-0.125
-0.125
-0.125
-0.125
-0.125
-0.125
-0.125
-0.125
-0.125
-0.125
-0.125
-0.125
-0.125
-0.125
-0.125
-0.125
-0.125
-0.125
-0.125
-0.125
-0.125
-0.125
-0.125
-0.125
-0.125
-0.125
-0.125
-0.125
-0.125
-0.125
-0.125
-0.125
-0.125
-0.125
-0.125
-0.125
-0.125
-0.125
-0.125
-0.125
-0.125
-0.125
-0.125
-0.125
-0.125
-0.125
-0.125
-0.125
-0.125
-0.125
-0.125
-0.125
-0.125
-0.125
-0.125
-0.125
-0.125
-0.125
-0.125
-0.125
-0.125
-0.125
-0.125
-0.125
-0.125
-0.125
-0.125
-0.125
-0.125
-0.125
-0.125
-0.125
-0.125
-0.125
-0.125
-0.125
-0.125
-0.125
-0.125
-0.125
-0.125
-0.125
-0.125
-0.125
-0.125
-0.125
-0.125
-0.125
-0.125
-0.125
-0.125
-0.125
-0.125
-0.125
-0.125
-0.125
-0.125
-0.125
-0.125
-0.125
-0.125
-0.125
-0.125
-0.125
-0.125
-0.125
-0.125
-0.125
-0.125
-0.125
-0.125
-0.125
-0.125
-0.125
-0.125
-0.125
-0.125
-0.125
-0.125
-0.125
-0.125
-0.125
-0.125
-0.125
-0.125
-0.125
-0.125
-0.125
-0.125
-0.1
-0.075
-0.05
-0.025
0.0
0.0375
0.0625
0.0875
0.1125
0.1375
0.175
0.2
0.225
0.25
0.275
0.3125
0.3375
0.3625
0.3875
0.4125
0.4375
0.475
0.5
0.525
0.55
0.575
0.6125
0.6375
0.6625
0.6875
0.7125
0.75
0.7125
0.6875
0.6625
0.6375
0.6125
0.575
0.55
0.525
0.5
0.475
0.4375
0.4125
0.3875
0.3625
0.3375
0.3125
0.275
0.25
0.225
0.2
0.175
0.1375
0.1125
0.0875
0.0625
0.0375
0.0
-0.025
-0.05
-0.075
-0.1
-0.125
-0.15
-0.175
-0.2
-0.225
-0.2
-0.175
-0.15
-0.125
-0.125
-0.125
-0.125
-0.125
-0.125
-0.125
-0.125
-0.125
-0.125
-0.125
-0.125
-0.125
-0.125
-0.125
-0.125
-0.125
-0.125
-0.125
-0.125
-0.125
-0.125
-0.125
-0.125
-0.125
-0.125
-0.125
-0.125
-0.125
-0.125
-0.125
-0.125
-0.125
-0.125
-0.125
-0.125
-0.125
-0.125
-0.125
-0.125
-0.125
-0.125
-0.125
-0.125
-0.125
-0.125
-0.125
-0.125
-0.125
-0.125
-0.125
-0.125
-0.125
-0.125
-0.125
-0.125
-0.125
-0.125
-0.125
-0.125
-0.125
-0.125
-0.125
-0.125
-0.125
-0.125
-0.125
-0.125
-0.125
-0.125
-0.125
-0.125
-0.125
-0.125
-0.125
-0.125
-0.125
-0.125
-0.125
-0.125
-0.125
-0.125
-0.125
-0.125
-0.125
-0.125
-0.125
-0.125
-0.125
-0.125
-0.125
-0.125
-0.125
-0.125
-0.125
-0.125
-0.125
-0.125
-0.125
-0.125
-0.125
-0.125
-0.125
-0.125
-0.125
-0.125
-0.125
-0.125
-0.125
-0.125
-0.125
-0.125
-0.125
-0.125
-0.125
-0.125
-0.125
-0.125
-0.125
-0.125
-0.125
-0.125
-0.125
-0.125
-0.125
-0.125
-0.125
-0.125
-0.125
-0.125
-0.125
-0.125
-0.125
-0.125
-0.125
-0.125
-0.125
-0.125
-0.125
-0.125
-0.125
-0.125
-0.125
-0.125
-0.125
-0.125
-0.125
-0.125
-0.125
-0.125
-0.125
-0.125
-0.125
-0.125
-0.125
-0.125
-0.125
-0.125
-0.125
-0.125
-0.125
-0.125
-0.125
-0.125
-0.125
-0.125
-0.125
-0.125
-0.125
-0.125
-0.125
-0.125
-0.125
-0.125
-0.125
-0.125
-0.125
-0.125
-0.125
-0.125
-0.125
-0.125
-0.125
-0.125
-0.125
-0.125
-0.125
-0.125
-0.125
-0.125
-0.125
-0.125
-0.125
-0.125
-0.125
-0.125
-0.125
-0.125
-0.125
-0.125
-0.125
-0.125
-0.125
-0.125
-0.125
-0.125
-0.125
-0.125
-0.125
-0.125
-0.125
-0.125
-0.125
-0.125
-0.125
-0.125
-0.125
-0.125
-0.125
-0.125
-0.125
-0.125
-0.125
-0.125
-0.125
-0.125
-0.125
-0.125
-0.125
-0.125
-0.125
-0.125
-0.125
-0.125
-0.125
-0.125
-0.125
-0.125
-0.125
-0.125
-0.125
-0.125
-0.125
-0.125
-0.125
-0.125
-0.125
-0.125
-0.125
-0.125
-0.125
-0.125
-0.125
-0.125
-0.125
-0.125
-0.125
-0.125
-0.125
-0.125
-0.125
-0.125
-0.125
-0.125
-0.125
-0.125
-0.125
-0.125
-0.125
-0.125
-0.125
-0.125
-0.125
-0.125
-0.125
-0.125
-0.125
-0.125
-0.125
-0.125
-0.125
-0.125
-0.125
-0.125
-0.125
-0.125
-0.125
-0.125
-0.125
-0.125
-0.125
-0.125
-0.125
-0.125
-0.125
-0.125
-0.125
-0.125
-0.125
-0.125
-0.125
-0.125
-0.125
-0.125
-0.125
-0.125
-0.125
-0.125
-0.125
-0.125
-0.125
-0.125
-0.125
-0.125
-0.125
-0.125
-0.125
-0.125
-0.125
-0.125
-0.125
-0.125
-0.125
-0.125
-0.125
-0.125
-0.125
-0.125
-0.125
-0.125
-0.125
-0.125
-0.125
-0.125
-0.125
-0.125
-0.125
-0.125
-0.125
-0.125
-0.125
-0.125
-0.125
-0.125
-0.125
-0.125
-0.125
-0.125
-0.125
-0.125
-0.125
-0.125
-0.125
-0.125
-0.125
-0.125
-0.125
-0.125
-0.125
-0.125
-0.125
-0.125
-0.125
-0.125
-0.125
-0.125
-0.125
-0.125
-0.125
-0.125
-0.125
-0.125
-0.125
-0.125
-0.125
-0.125
-0.125
-0.125
-0.125
-0.125
-0.125
-0.125
-0.125
-0.125
-0.125
-0.125
-0.125
-0.125
-0.125
-0.125
-0.125
-0.125
-0.125
-0.125
-0.125
-0.125
-0.125
-0.125
-0.125
-0.125
-0.125
-0.125
-0.125
-0.125
-0.125
-0.125
-0.125
-0.125
-0.125
-0.125
-0.125
-0.125
-0.125
-0.125
-0.125
-0.125
-0.125
-0.125
-0.125
-0.125
-0.125
-0.125
-0.125
-0.125
-0.125
-0.125
-0.125
-0.125
-0.125
-0.125
-0.125
-0.125
-0.125
-0.125
-0.125
-0.125
-0.125
-0.125
-0.125
-0.125
-0.125
-0.125
-0.125
-0.125
-0.125
-0.125
-0.125
-0.125
-0.125
-0.125
-0.125
-0.125
-0.125
-0.125
-0.125
-0.125
-0.125
-0.125
-0.125
-0.125
-0.125
-0.125
-0.125
-0.125
-0.125
-0.125
-0.125
-0.125
-0.125
-0.1
-0.075
-0.05
-0.025
0.0
0.0375
0.0625
0.0875
0.1125
0.1375
0.175
0.2
0.225
0.25
0.275
0.3125
0.3375
0.3625
0.3875
0.4125
0.4375
0.475
0.5
0.525
0.55
0.575
0.6125
0.6375
0.6625
0.6875
0.7125
0.75
0.7125
0.6875
0.6625
0.6375
0.6125
0.575
0.55
0.525
0.5
0.475
0.4375
0.4125
0.3875
0.3625
0.3375
0.3125
0.275
0.25
0.225
0.2
0.175
0.1375
0.1125
0.0875
0.0625
0.0375
0.0
-0.025
-0.05
-0.075
-0.1
-0.125
-0.15
-0.175
-0.2
-0.225
-0.2
-0.175
-0.15
-0.125
-0.125
-0.125
-0.125
-0.125
-0.125
-0.125
-0.125
-0.125
-0.125
-0.125
-0.125
-0.125
-0.125
-0.125
-0.125
-0.125
-0.125
-0.125
-0.125
-0.125
-0.125
-0.125
-0.125
-0.125
-0.125
-0.125
-0.125
-0.125
-0.125
-0.125
-0.125
-0.125
-0.125
-0.125
-0.125
-0.125
-0.125
-0.125
-0.125
-0.125
-0.125
-0.125
-0.125
-0.125
-0.125
-0.125
-0.125
-0.125
-0.125
-0.125
-0.125
-0.125
-0.125
-0.125
-0.125
-0.125
-0.125
-0.125
-0.125
-0.125
-0.125
-0.125
-0.125
-0.125
-0.125
-0.125
-0.125
-0.125
-0.125
-0.125
-0.125
-0.125
-0.125
-0.125
-0.125
-0.125
-0.125
-0.125
-0.125
-0.125
-0.125
-0.125
-0.125
-0.125
-0.125
-0.125
-0.125
-0.125
-0.125
-0.125
-0.125
-0.125
-0.125
-0.125
-0.125
-0.125
-0.125
-0.125
-0.125
-0.125
-0.125
-0.125
-0.125
-0.125
-0.125
-0.125
-0.125
-0.125
-0.125
-0.125
-0.125
-0.125
-0.125
-0.125
-0.125
-0.125
-0.125
-0.125
-0.125
-0.125
-0.125
-0.125
-0.125
-0.125
-0.125
-0.125
-0.125
-0.125
-0.125
-0.125
-0.125
-0.125
-0.125
-0.125
-0.125
-0.125
-0.125
-0.125
-0.125
-0.125
-0.125
-0.125
-0.125
-0.125
-0.125
-0.125
-0.125
-0.125
-0.125
-0.125
-0.125
-0.125
-0.125
-0.125
-0.125
-0.125
-0.125
-0.125
-0.125
-0.125
-0.125
-0.125
-0.125
-0.125
-0.125
-0.125
-0.125
-0.125
-0.125
-0.125
-0.125
-0.125
-0.125
-0.125
-0.125
-0.125
-0.125
-0.125
-0.125
-0.125
-0.125
-0.125
-0.125
-0.125
-0.125
-0.125
-0.125
-0.125
-0.125
-0.125
-0.125
-0.125
-0.125
-0.125
-0.125
-0.125
-0.125
-0.125
-0.125
-0.125
-0.125
-0.125
-0.125
-0.125
-0.125
-0.125
-0.125
-0.125
-0.125
-0.125
-0.125
-0.125
-0.125
-0.125
-0.125
-0.125
-0.125
-0.125
-0.125
-0.125
-0.125
-0.125
-0.125
-0.125
-0.125
-0.125
-0.125
-0.125
-0.125
-0.125
-0.125
-0.125
-0.125
-0.125
-0.125
-0.125
-0.125
-0.125
-0.125
-0.125
-0.125
-0.125
-0.125
-0.125
-0.125
-0.125
-0.125
-0.125
-0.125
-0.125
-0.125
-0.125
-0.125
-0.125
-0.125
-0.125
-0.125
-0.125
-0.125
-0.125
-0.125
-0.125
-0.125
-0.125
-0.125
-0.125
-0.125
-0.125
-0.125
-0.125
-0.125
-0.125
-0.125
-0.125
-0.125
-0.125
-0.125
-0.125
-0.125
-0.125
-0.125
-0.125
-0.125
-0.125
-0.125
-0.125
-0.125
-0.125
-0.125
-0.125
-0.125
-0.125
-0.125
-0.125
-0.125
-0.125
-0.125
-0.125
-0.125
-0.125
-0.125
-0.125
-0.125
-0.125
-0.125
-0.125
-0.125
-0.125
-0.125
-0.125
-0.125
-0.125
-0.125
-0.125
-0.125
-0.125
-0.125
-0.125
-0.125
-0.125
-0.125
-0.125
-0.125
-0.125
-0.125
-0.125
-0.125
-0.125
-0.125
-0.125
-0.125
-0.125
-0.125
-0.125
-0.125
-0.125
-0.125
-0.125
-0.125
-0.125
-0.125
-0.125
-0.125
-0.125
-0.125
-0.125
-0.125
-0.125
-0.125
-0.125
-0.125
-0.125
-0.125
-0.125
-0.125
-0.125
-0.125
-0.125
-0.125
-0.125
-0.125
-0.125
-0.125
-0.125
-0.125
-0.125
-0.125
-0.125
-0.125
-0.125
-0.125
-0.125
-0.125
-0.125
-0.125
-0.125
-0.125
-0.125
-0.125
-0.125
-0.125
-0.125
-0.125
-0.125
-0.125
-0.125
-0.125
-0.125
-0.125
-0.125
-0.125
-0.125
-0.125
-0.125
-0.125
-0.125
-0.125
-0.125
-0.125
-0.125
-0.125
-0.125
-0.125
-0.125
-0.125
-0.125
-0.125
-0.125
-0.125
-0.125
-0.125
-0.125
-0.125
-0.125
-0.125
-0.125
-0.125
-0.125
-0.125
-0.125
-0.125
-0.125
-0.125
-0.125
-0.125
-0.125
-0.125
-0.125
-0.125
-0.125
-0.125
-0.125
-0.125
-0.125
-0.125
-0.125
-0.125
-0.125
-0.125
-0.125
-0.125
-0.125
-0.125
-0.125
-0.125
-0.125
-0.125
-0.125
-0.125
-0.125
-0.125
-0.125
-0.125
-0.125
-0.125
-0.125
-0.125
-0.125
-0.125
-0.125
-0.125
-0.125
-0.125
-0.125
-0.125
-0.125
-0.125
-0.125
-0.1
-0.075
-0.05
-0.025
0.0
0.0375
0.0625
0.0875
0.1125
0.1375
0.175
0.2
0.225
0.25
0.275
0.3125
0.3375
0.3625
0.3875
0.4125
0.4375
0.475
0.5
0.525
0.55
0.575
0.6125
0.6375
0.6625
0.6875
0.7125
0.75
0.7125
0.6875
0.6625
0.6375
0.6125
0.575
0.55
0.525
0.5
0.475
0.4375
0.4125
0.3875
0.3625
0.3375
0.3125
0.275
0.25
0.225
0.2
0.175
0.1375
0.1125
0.0875
0.0625
0.0375
0.0
-0.025
-0.05
-0.075
-0.1
-0.125
-0.15
-0.175
-0.2
-0.225
-0.2
-0.175
-0.15
-0.125
-0.125
-0.125
-0.125
-0.125
-0.125
-0.125
-0.125
-0.125
-0.125
-0.125
-0.125
-0.125
-0.125
-0.125
-0.125
-0.125
-0.125
-0.125
-0.125
-0.125
-0.125
-0.125
-0.125
-0.125
-0.125
-0.125
-0.125
-0.125
-0.125
-0.125
-0.125
-0.125
-0.125
-0.125
-0.125
-0.125
-0.125
-0.125
-0.125
-0.125
-0.125
-0.125
-0.125
-0.125
-0.125
-0.125
-0.125
-0.125
-0.125
-0.125
-0.125
-0.125
-0.125
-0.125
-0.125
-0.125
-0.125
-0.125
-0.125
-0.125
-0.125
-0.125
-0.125
-0.125
-0.125
-0.125
-0.125
-0.125
-0.125
-0.125
-0.125
-0.125
-0.125
-0.125
-0.125
-0.125
-0.125
-0.125
-0.125
-0.125
-0.125
-0.125
-0.125
-0.125
-0.125
-0.125
-0.125
-0.125
-0.125
-0.125
-0.125
-0.125
-0.125
-0.125
-0.125
-0.125
-0.125
-0.125
-0.125
-0.125
-0.125
-0.125
-0.125
-0.125
-0.125
-0.125
-0.125
-0.125
-0.125
-0.125
-0.125
-0.125
-0.125
-0.125
-0.125
-0.125
-0.125
-0.125
-0.125
-0.125
-0.125
-0.125
-0.125
-0.125
-0.125
-0.125
-0.125
-0.125
-0.125
-0.125
-0.125
-0.125
-0.125
-0.125
-0.125
-0.125
-0.125
-0.125
-0.125
-0.125
-0.125
-0.125
-0.125
-0.125
-0.125
-0.125
-0.125
-0.125
-0.125
-0.125
-0.125
-0.125
-0.125
-0.125
-0.125
-0.125
-0.125
-0.125
-0.125
-0.125
-0.125
-0.125
-0.125
-0.125
-0.125
-0.125
-0.125
-0.125
-0.125
-0.125
-0.125
-0.125
-0.125
-0.125
-0.125
-0.125
-0.125
-0.125
-0.125
-0.125
-0.125
-0.125
-0.125
-0.125
-0.125
-0.125
-0.125
-0.125
-0.125
-0.125
-0.125
-0.125
-0.125
-0.125
-0.125
-0.125
-0.125
-0.125
-0.125
-0.125
-0.125
-0.125
-0.125
-0.125
-0.125
-0.125
-0.125
-0.125
-0.125
-0.125
-0.125
-0.125
-0.125
-0.125
-0.125
-0.125
-0.125
-0.125
-0.125
-0.125
-0.125
-0.125
-0.125
-0.125
-0.125
-0.125
-0.125
-0.125
-0.125
-0.125
-0.125
-0.125
-0.125
-0.125
-0.125
-0.125
-0.125
-0.125
-0.125
-0.125
-0.125
-0.125
-0.125
-0.125
-0.125
-0.125
-0.125
-0.125
-0.125
-0.125
-0.125
-0.125
-0.125
-0.125
-0.125
-0.125
-0.125
-0.125
-0.125
-0.125
-0.125
-0.125
-0.125
-0.125
-0.125
-0.125
-0.125
-0.125
-0.125
-0.125
-0.125
-0.125
-0.125
-0.125
-0.125
-0.125
-0.125
-0.125
-0.125
-0.125
-0.125
-0.125
-0.125
-0.125
-0.125
-0.125
-0.125
-0.125
-0.125
-0.125
-0.125
-0.125
-0.125
-0.125
-0.125
-0.125
-0.125
-0.125
-0.125
-0.125
-0.125
-0.125
-0.125
-0.125
-0.125
-0.125
-0.125
-0.125
-0.125
-0.125
-0.125
-0.125
-0.125
-0.125
-0.125
-0.125
-0.125
-0.125
-0.125
-0.125
-0.125
-0.125
-0.125
-0.125
-0.125
-0.125
-0.125
-0.125
-0.125
-0.125
-0.125
-0.125
-0.125
-0.125
-0.125
-0.125
-0.125
-0.125
-0.125
-0.125
-0.125
-0.125
-0.125
-0.125
-0.125
-0.125
-0.125
-0.125
-0.125
-0.125
-0.125
-0.125
-0.125
-0.125
-0.125
-0.125
-0.125
-0.125
-0.125
-0.125
-0.125
-0.125
-0.125
-0.125
-0.125
-0.125
-0.125
-0.125
-0.125
-0.125
-0.125
-0.125
-0.125
-0.125
-0.125
-0.125
-0.125
-0.125
-0.125
-0.125
-0.125
-0.125
-0.125
-0.125
-0.125
-0.125
-0.125
-0.125
-0.125
-0.125
-0.125
-0.125
-0.125
-0.125
-0.125
-0.125
-0.125
-0.125
-0.125
-0.125
-0.125
-0.125
-0.125
-0.125
-0.125
-0.125
-0.125
-0.125
-0.125
-0.125
-0.125
-0.125
-0.125
-0.125
-0.125
-0.125
-0.125
-0.125
-0.125
-0.125
-0.125
-0.125
-0.125
-0.125
-0.125
-0.125
-0.125
-0.125
-0.125
-0.125
-0.125
-0.125
-0.125
-0.125
-0.125
-0.125
-0.125
-0.125
-0.125
-0.125
-0.125
-0.125
-0.125
-0.125
-0.125
-0.125
-0.125
-0.125
-0.125
-0.125
-0.125
-0.125
-0.125
-0.125
-0.125
-0.125
-0.125
-0.125
-0.125
-0.125
-0.125
-0.125
-0.125
-0.125
-0.125
-0.125
-0.125
-0.125
-0.1
-0.075
-0.05
-0.025
0.0
0.0375
0.0625
0.0875
0.1125
0.1375
0.175
0.2
0.225
0.25
0.275
0.3125
0.3375
0.3625
0.3875
0.4125
0.4375
0.475
0.5
0.525
0.55
0.575
0.6125
0.6375
0.6625
0.6875
0.7125
0.75
0.7125
0.6875
0.6625
0.6375
0.6125
0.575
0.55
0.525
0.5
0.475
0.4375
0.4125
0.3875
0.3625
0.3375
0.3125
0.275
0.25
0.225
0.2
0.175
0.1375
0.1125
0.0875
0.0625
0.0375
0.0
-0.025
-0.05
-0.075
-0.1
-0.125
-0.15
-0.175
-0.2
-0.225
-0.2
-0.175
-0.15
-0.125
-0.125
-0.125
-0.125
-0.125
-0.125
-0.125
-0.125
-0.125
-0.125
-0.125
-0.125
-0.125
-0.125
-0.125
-0.125
-0.125
-0.125
-0.125
-0.125
-0.125
-0.125
-0.125
-0.125
-0.125
-0.125
-0.125
-0.125
-0.125
-0.125
-0.125
-0.125
-0.125
-0.125
-0.125
-0.125
-0.125
-0.125
-0.125
-0.125
-0.125
-0.125
-0.125
-0.125
-0.125
-0.125
-0.125
-0.125
-0.125
-0.125
-0.125
-0.125
-0.125
-0.125
-0.125
-0.125
-0.125
-0.125
-0.125
-0.125
-0.125
-0.125
-0.125
-0.125
-0.125
-0.125
-0.125
-0.125
-0.125
-0.125
-0.125
-0.125
-0.125
-0.125
-0.125
-0.125
-0.125
-0.125
-0.125
-0.125
-0.125
-0.125
-0.125
-0.125
-0.125
-0.125
-0.125
-0.125
-0.125
-0.125
-0.125
-0.125
-0.125
-0.125
-0.125
-0.125
-0.125
-0.125
-0.125
-0.125
-0.125
-0.125
-0.125
-0.125
-0.125
-0.125
-0.125
-0.125
-0.125
-0.125
-0.125
-0.125
-0.125
-0.125
-0.125
-0.125
-0.125
-0.125
-0.125
-0.125
-0.125
-0.125
-0.125
-0.125
-0.125
-0.125
-0.125
-0.125
-0.125
-0.125
-0.125
-0.125
-0.125
-0.125
-0.125
-0.125
-0.125
-0.125
-0.125
-0.125
-0.125
-0.125
-0.125
-0.125
-0.125
-0.125
-0.125
-0.125
-0.125
-0.125
-0.125
-0.125
-0.125
-0.125
-0.125
-0.125
-0.125
-0.125
-0.125
-0.125
-0.125
-0.125
-0.125
-0.125
-0.125
-0.125
-0.125
-0.125
-0.125
-0.125
-0.125
-0.125
-0.125
-0.125
-0.125
-0.125
-0.125
-0.125
-0.125
-0.125
-0.125
-0.125
-0.125
-0.125
-0.125
-0.125
-0.125
-0.125
-0.125
-0.125
-0.125
-0.125
-0.125
-0.125
-0.125
-0.125
-0.125
-0.125
-0.125
-0.125
-0.125
-0.125
-0.125
-0.125
-0.125
-0.125
-0.125
-0.125
-0.125
-0.125
-0.125
-0.125
-0.125
-0.125
-0.125
-0.125
-0.125
-0.125
-0.125
-0.125
-0.125
-0.125
-0.125
-0.125
-0.125
-0.125
-0.125
-0.125
-0.125
-0.125
-0.125
-0.125
-0.125
-0.125
-0.125
-0.125
-0.125
-0.125
-0.125
-0.125
-0.125
-0.125
-0.125
-0.125
-0.125
-0.125
-0.125
-0.125
-0.125
-0.125
-0.125
-0.125
-0.125
-0.125
-0.125
-0.125
-0.125
-0.125
-0.125
-0.125
-0.125
-0.125
-0.125
-0.125
-0.125
-0.125
-0.125
-0.125
-0.125
-0.125
-0.125
-0.125
-0.125
-0.125
-0.125
-0.125
-0.125
-0.125
-0.125
-0.125
-0.125
-0.125
-0.125
-0.125
-0.125
-0.125
-0.125
-0.125
-0.125
-0.125
-0.125
-0.125
-0.125
-0.125
-0.125
-0.125
-0.125
-0.125
-0.125
-0.125
-0.125
-0.125
-0.125
-0.125
-0.125
-0.125
-0.125
-0.125
-0.125
-0.125
-0.125
-0.125
-0.125
-0.125
-0.125
-0.125
-0.125
-0.125
-0.125
-0.125
-0.125
-0.125
-0.125
-0.125
-0.125
-0.125
-0.125
-0.125
-0.125
-0.125
-0.125
-0.125
-0.125
-0.125
-0.125
-0.125
-0.125
-0.125
-0.125
-0.125
-0.125
-0.125
-0.125
-0.125
-0.125
-0.125
-0.125
-0.125
-0.125
-0.125
-0.125
-0.125
-0.125
-0.125
-0.125
-0.125
-0.125
-0.125
-0.125
-0.125
-0.125
-0.125
-0.125
-0.125
-0.125
-0.125
-0.125
-0.125
-0.125
-0.125
-0.125
-0.125
-0.125
-0.125
-0.125
-0.125
-0.125
-0.125
-0.125
-0.125
-0.125
-0.125
-0.125
-0.125
-0.125
-0.125
-0.125
-0.125
-0.125
-0.125
-0.125
-0.125
-0.125
-0.125
-0.125
-0.125
-0.125
-0.125
-0.125
-0.125
-0.125
-0.125
-0.125
-0.125
-0.125
-0.125
-0.125
-0.125
-0.125
-0.125
-0.125
-0.125
-0.125
-0.125
-0.125
-0.125
-0.125
-0.125
-0.125
-0.125
-0.125
-0.125
-0.125
-0.125
-0.125
-0.125
-0.125
-0.125
-0.125
-0.125
-0.125
-0.125
-0.125
-0.125
-0.125
-0.125
-0.125
-0.125
-0.125
-0.125
-0.125
-0.125
-0.125
-0.125
-0.125
-0.125
-0.125
-0.125
-0.125
-0.125
-0.125
-0.125
-0.125
-0.125
-0.125
-0.125
-0.125
-0.125
-0.125
-0.125
-0.125
-0.125
-0.125
-0.125
-0.125
-0.125
-0.125
-0.125
-0.125
-0.1
-0.075
-0.05
-0.025
0.0
0.0375
0.0625
0.0875
0.1125
0.1375
0.175
0.2
0.225
0.25
0.275
0.3125
0.3375
0.3625
0.3875
0.4125
0.4375
0.475
0.5
0.525
0.55
0.575
0.6125
0.6375
0.6625
0.6875
0.7125
0.75
0.7125
0.6875
0.6625
0.6375
0.6125
0.575
0.55
0.525
0.5
0.475
0.4375
0.4125
0.3875
0.3625
0.3375
0.3125
0.275
0.25
0.225
0.2
0.175
0.1375
0.1125
0.0875
0.0625
0.0375
0.0
-0.025
-0.05
-0.075
-0.1
-0.125
-0.15
-0.175
-0.2
-0.225
-0.2
-0.175
-0.15
-0.125
-0.125
-0.125
-0.125
-0.125
-0.125
-0.125
-0.125
-0.125
-0.125
-0.125
-0.125
-0.125
-0.125
-0.125
-0.125
-0.125
-0.125
-0.125
-0.125
-0.125
-0.125
-0.125
-0.125
-0.125
-0.125
-0.125
-0.125
-0.125
-0.125
-0.125
-0.125
-0.125
-0.125
-0.125
-0.125
-0.125
-0.125
-0.125
-0.125
-0.125
-0.125
-0.125
-0.125
-0.125
-0.125
-0.125
-0.125
-0.125
-0.125
-0.125
-0.125
-0.125
-0.125
-0.125
-0.125
-0.125
-0.125
-0.125
-0.125
-0.125
-0.125
-0.125
-0.125
-0.125
-0.125
-0.125
-0.125
-0.125
-0.125
-0.125
-0.125
-0.125
-0.125
-0.125
-0.125
-0.125
-0.125
-0.125
-0.125
-0.125
-0.125
-0.125
-0.125
-0.125
-0.125
-0.125
-0.125
-0.125
-0.125
-0.125
-0.125
-0.125
-0.125
-0.125
-0.125
-0.125
-0.125
-0.125
-0.125
-0.125
-0.125
-0.125
-0.125
-0.125
-0.125
-0.125
-0.125
-0.125
-0.125
-0.125
-0.125
-0.125
-0.125
-0.125
-0.125
-0.125
-0.125
-0.125
-0.125
-0.125
-0.125
-0.125
-0.125
-0.125
-0.125
-0.125
-0.125
-0.125
-0.125
-0.125
-0.125
-0.125
-0.125
-0.125
-0.125
-0.125
-0.125
-0.125
-0.125
-0.125
-0.125
-0.125
-0.125
-0.125
-0.125
-0.125
-0.125
-0.125
-0.125
-0.125
-0.125
-0.125
-0.125
-0.125
-0.125
-0.125
-0.125
-0.125
-0.125
-0.125
-0.125
-0.125
-0.125
-0.125
-0.125
-0.125
-0.125
-0.125
-0.125
-0.125
-0.125
-0.125
-0.125
-0.125
-0.125
-0.125
-0.125
-0.125
-0.125
-0.125
-0.125
-0.125
-0.125
-0.125
-0.125
-0.125
-0.125
-0.125
-0.125
-0.125
-0.125
-0.125
-0.125
-0.125
-0.125
-0.125
-0.125
-0.125
-0.125
-0.125
-0.125
-0.125
-0.125
-0.125
-0.125
-0.125
-0.125
-0.125
-0.125
-0.125
-0.125
-0.125
-0.125
-0.125
-0.125
-0.125
-0.125
-0.125
-0.125
-0.125
-0.125
-0.125
-0.125
-0.125
-0.125
-0.125
-0.125
-0.125
-0.125
-0.125
-0.125
-0.125
-0.125
-0.125
-0.125
-0.125
-0.125
-0.125
-0.125
-0.125
-0.125
-0.125
-0.125
-0.125
-0.125
-0.125
-0.125
-0.125
-0.125
-0.125
-0.125
-0.125
-0.125
-0.125
-0.125
-0.125
-0.125
-0.125
-0.125
-0.125
-0.125
-0.125
-0.125
-0.125
-0.125
-0.125
-0.125
-0.125
-0.125
-0.125
-0.125
-0.125
-0.125
-0.125
-0.125
-0.125
-0.125
-0.125
-0.125
-0.125
-0.125
-0.125
-0.125
-0.125
-0.125
-0.125
-0.125
-0.125
-0.125
-0.125
-0.125
-0.125
-0.125
-0.125
-0.125
-0.125
-0.125
-0.125
-0.125
-0.125
-0.125
-0.125
-0.125
-0.125
-0.125
-0.125
-0.125
-0.125
-0.125
-0.125
-0.125
-0.125
-0.125
-0.125
-0.125
-0.125
-0.125
-0.125
-0.125
-0.125
-0.125
-0.125
-0.125
-0.125
-0.125
-0.125
-0.125
-0.125
-0.125
-0.125
-0.125
-0.125
-0.125
-0.125
-0.125
-0.125
-0.125
-0.125
-0.125
-0.125
-0.125
-0.125
-0.125
-0.125
-0.125
-0.125
-0.125
-0.125
-0.125
-0.125
-0.125
-0.125
-0.125
-0.125
-0.125
-0.125
-0.125
-0.125
-0.125
-0.125
-0.125
-0.125
-0.125
-0.125
-0.125
-0.125
-0.125
-0.125
-0.125
-0.125
-0.125
-0.125
-0.125
-0.125
-0.125
-0.125
-0.125
-0.125
-0.125
-0.125
-0.125
-0.125
-0.125
-0.125
-0.125
-0.125
-0.125
-0.125
-0.125
-0.125
-0.125
-0.125
-0.125
-0.125
-0.125
-0.125
-0.125
-0.125
-0.125
-0.125
-0.125
-0.125
-0.125
-0.125
-0.125
-0.125
-0.125
-0.125
-0.125
-0.125
-0.125
-0.125
-0.125
-0.125
-0.125
-0.125
-0.125
-0.125
-0.125
-0.125
-0.125
-0.125
-0.125
-0.125
-0.125
-0.125
-0.125
-0.125
-0.125
-0.125
-0.125
-0.125
-0.125
-0.125
-0.125
-0.125
-0.125
-0.125
-0.125
-0.125
-0.125
-0.125
-0.125
-0.125
-0.125
-0.125
-0.125
-0.125
-0.125
-0.125
-0.125
-0.125
-0.125
-0.125
-0.125
-0.125
-0.125
-0.125
-0.125
-0.125
-0.125
-0.125
-0.125
-0.125
-0.125
-0.125
-0.125
-0.125
-0.1
-0.075
-0.05
-0.025
0.0
0.0375
0.0625
0.0875
0.1125
0.1375
0.175
0.2
0.225
0.25
0.275
0.3125
0.3375
0.3625
0.3875
0.4125
0.4375
0.475
0.5
0.525
0.55
0.575
0.6125
0.6375
0.6625
0.6875
0.7125
0.75
0.7125
0.6875
0.6625
0.6375
0.6125
0.575
0.55
0.525
0.5
0.475
0.4375
0.4125
0.3875
0.3625
0.3375
0.3125
0.275
0.25
0.225
0.2
0.175
0.1375
0.1125
0.0875
0.0625
0.0375
0.0
-0.025
-0.05
-0.075
-0.1
-0.125
-0.15
-0.175
-0.2
-0.225
-0.2
-0.175
-0.15
-0.125
-0.125
-0.125
-0.125
-0.125
-0.125
-0.125
-0.125
-0.125
-0.125
-0.125
-0.125
-0.125
-0.125
-0.125
-0.125
-0.125
-0.125
-0.125
-0.125
-0.125
-0.125
-0.125
-0.125
-0.125
-0.125
-0.125
-0.125
-0.125
-0.125
-0.125
-0.125
-0.125
-0.125
-0.125
-0.125
-0.125
-0.125
-0.125
-0.125
-0.125
-0.125
-0.125
-0.125
-0.125
-0.125
-0.125
-0.125
-0.125
-0.125
-0.125
-0.125
-0.125
-0.125
-0.125
-0.125
-0.125
-0.125
-0.125
-0.125
-0.125
-0.125
-0.125
-0.125
-0.125
-0.125
-0.125
-0.125
-0.125
-0.125
-0.125
-0.125
-0.125
-0.125
-0.125
-0.125
-0.125
-0.125
-0.125
-0.125
-0.125
-0.125
-0.125
-0.125
-0.125
-0.125
-0.125
-0.125
-0.125
-0.125
-0.125
-0.125
-0.125
-0.125
-0.125
-0.125
-0.125
-0.125
-0.125
-0.125
-0.125
-0.125
-0.125
-0.125
-0.125
-0.125
-0.125
-0.125
-0.125
-0.125
-0.125
-0.125
-0.125
-0.125
-0.125
-0.125
-0.125
-0.125
-0.125
-0.125
-0.125
-0.125
-0.125
-0.125
-0.125
-0.125
-0.125
-0.125
-0.125
-0.125
-0.125
-0.125
-0.125
-0.125
-0.125
-0.125
-0.125
-0.125
-0.125
-0.125
-0.125
-0.125
-0.125
-0.125
-0.125
-0.125
-0.125
-0.125
-0.125
-0.125
-0.125
-0.125
-0.125
-0.125
-0.125
-0.125
-0.125
-0.125
-0.125
-0.125
-0.125
-0.125
-0.125
-0.125
-0.125
-0.125
-0.125
-0.125
-0.125
-0.125
-0.125
-0.125
-0.125
-0.125
-0.125
-0.125
-0.125
-0.125
-0.125
-0.125
-0.125
-0.125
-0.125
-0.125
-0.125
-0.125
-0.125
-0.125
-0.125
-0.125
-0.125
-0.125
-0.125
-0.125
-0.125
-0.125
-0.125
-0.125
-0.125
-0.125
-0.125
-0.125
-0.125
-0.125
-0.125
-0.125
-0.125
-0.125
-0.125
-0.125
-0.125
-0.125
-0.125
-0.125
-0.125
-0.125
-0.125
-0.125
-0.125
-0.125
-0.125
-0.125
-0.125
-0.125
-0.125
-0.125
-0.125
-0.125
-0.125
-0.125
-0.125
-0.125
-0.125
-0.125
-0.125
-0.125
-0.125
-0.125
-0.125
-0.125
-0.125
-0.125
-0.125
-0.125
-0.125
-0.125
-0.125
-0.125
-0.125
-0.125
-0.125
-0.125
-0.125
-0.125
-0.125
-0.125
-0.125
-0.125
-0.125
-0.125
-0.125
-0.125
-0.125
-0.125
-0.125
-0.125
-0.125
-0.125
-0.125
-0.125
-0.125
-0.125
-0.125
-0.125
-0.125
-0.125
-0.125
-0.125
-0.125
-0.125
-0.125
-0.125
-0.125
-0.125
-0.125
-0.125
-0.125
-0.125
-0.125
-0.125
-0.125
-0.125
-0.125
-0.125
-0.125
-0.125
-0.125
-0.125
-0.125
-0.125
-0.125
-0.125
-0.125
-0.125
-0.125
-0.125
-0.125
-0.125
-0.125
-0.125
-0.125
-0.125
-0.125
-0.125
-0.125
-0.125
-0.125
-0.125
-0.125
-0.125
-0.125
-0.125
-0.125
-0.125
-0.125
-0.125
-0.125
-0.125
-0.125
-0.125
-0.125
-0.125
-0.125
-0.125
-0.125
-0.125
-0.125
-0.125
-0.125
-0.125
-0.125
-0.125
-0.125
-0.125
-0.125
-0.125
-0.125
-0.125
-0.125
-0.125
-0.125
-0.125
-0.125
-0.125
-0.125
-0.125
-0.125
-0.125
-0.125
-0.125
-0.125
-0.125
-0.125
-0.125
-0.125
-0.125
-0.125
-0.125
-0.125
-0.125
-0.125
-0.125
-0.125
-0.125
-0.125
-0.125
-0.125
-0.125
-0.125
-0.125
-0.125
-0.125
-0.125
-0.125
-0.125
-0.125
-0.125
-0.125
-0.125
-0.125
-0.125
-0.125
-0.125
-0.125
-0.125
-0.125
-0.125
-0.125
-0.125
-0.125
-0.125
-0.125
-0.125
-0.125
-0.125
-0.125
-0.125
-0.125
-0.125
-0.125
-0.125
-0.125
-0.125
-0.125
-0.125
-0.125
-0.125
-0.125
-0.125
-0.125
-0.125
-0.125
-0.125
-0.125
-0.125
-0.125
-0.125
-0.125
-0.125
-0.125
-0.125
-0.125
-0.125
-0.125
-0.125
-0.125
-0.125
-0.125
-0.125
-0.125
-0.125
-0.125
-0.125
-0.125
-0.125
-0.125
-0.125
-0.125
-0.125
-0.125
-0.125
-0.125
-0.125
-0.125
-0.125
-0.125
-0.125
-0.125
-0.125
-0.125
-0.125
-0.125
-0.125
-0.125
-0.125
-0.125
-0.125
-0.125
-0.125
-0.1
-0.075
-0.05
-0.025
0.0
0.0375
0.0625
0.0875
0.1125
0.1375
0.175
0.2
0.225
0.25
0.275
0.3125
0.3375
0.3625
0.3875
0.4125
0.4375
0.475
0.5
0.525
0.55
0.575
0.6125
0.6375
0.6625
0.6875
0.7125
0.75
0.7125
0.6875
0.6625
0.6375
0.6125
0.575
0.55
0.525
0.5
0.475
0.4375
0.4125
0.3875
0.3625
0.3375
0.3125
0.275
0.25
0.225
0.2
0.175
0.1375
0.1125
0.0875
0.0625
0.0375
0.0
-0.025
-0.05
-0.075
-0.1
-0.125
-0.15
-0.175
-0.2
-0.225
-0.2
-0.175
-0.15
-0.125
-0.125
-0.125
-0.125
-0.125
-0.125
-0.125
-0.125
-0.125
-0.125
-0.125
-0.125
-0.125
-0.125
-0.125
-0.125
-0.125
-0.125
-0.125
-0.125
-0.125
-0.125
-0.125
-0.125
-0.125
-0.125
-0.125
-0.125
-0.125
-0.125
-0.125
-0.125
-0.125
-0.125
-0.125
-0.125
-0.125
-0.125
-0.125
-0.125
-0.125
-0.125
-0.125
-0.125
-0.125
-0.125
-0.125
-0.125
-0.125
-0.125
-0.125
-0.125
-0.125
-0.125
-0.125
-0.125
-0.125
-0.125
-0.125
-0.125
-0.125
-0.125
-0.125
-0.125
-0.125
-0.125
-0.125
-0.125
-0.125
-0.125
-0.125
-0.125
-0.125
-0.125
-0.125
-0.125
-0.125
-0.125
-0.125
-0.125
-0.125
-0.125
-0.125
-0.125
-0.125
-0.125
-0.125
-0.125
-0.125
-0.125
-0.125
-0.125
-0.125
-0.125
-0.125
-0.125
-0.125
-0.125
-0.125
-0.125
-0.125
-0.125
-0.125
-0.125
-0.125
-0.125
-0.125
-0.125
-0.125
-0.125
-0.125
-0.125
-0.125
-0.125
-0.125
-0.125
-0.125
-0.125
-0.125
-0.125
-0.125
-0.125
-0.125
-0.125
-0.125
-0.125
-0.125
-0.125
-0.125
-0.125
-0.125
-0.125
-0.125
-0.125
-0.125
-0.125
-0.125
-0.125
-0.125
-0.125
-0.125
-0.125
-0.125
-0.125
-0.125
-0.125
-0.125
-0.125
-0.125
-0.125
-0.125
-0.125
-0.125
-0.125
-0.125
-0.125
-0.125
-0.125
-0.125
-0.125
-0.125
-0.125
-0.125
-0.125
-0.125
-0.125
-0.125
-0.125
-0.125
-0.125
-0.125
-0.125
-0.125
-0.125
-0.125
-0.125
-0.125
-0.125
-0.125
-0.125
-0.125
-0.125
-0.125
-0.125
-0.125
-0.125
-0.125
-0.125
-0.125
-0.125
-0.125
-0.125
-0.125
-0.125
-0.125
-0.125
-0.125
-0.125
-0.125
-0.125
-0.125
-0.125
-0.125
-0.125
-0.125
-0.125
-0.125
-0.125
-0.125
-0.125
-0.125
-0.125
-0.125
-0.125
-0.125
-0.125
-0.125
-0.125
-0.125
-0.125
-0.125
-0.125
-0.125
-0.125
-0.125
-0.125
-0.125
-0.125
-0.125
-0.125
-0.125
-0.125
-0.125
-0.125
-0.125
-0.125
-0.125
-0.125
-0.125
-0.125
-0.125
-0.125
-0.125
-0.125
-0.125
-0.125
-0.125
-0.125
-0.125
-0.125
-0.125
-0.125
-0.125
-0.125
-0.125
-0.125
-0.125
-0.125
-0.125
-0.125
-0.125
-0.125
-0.125
-0.125
-0.125
-0.125
-0.125
-0.125
-0.125
-0.125
-0.125
-0.125
-0.125
-0.125
-0.125
-0.125
-0.125
-0.125
-0.125
-0.125
-0.125
-0.125
-0.125
-0.125
-0.125
-0.125
-0.125
-0.125
-0.125
-0.125
-0.125
-0.125
-0.125
-0.125
-0.125
-0.125
-0.125
-0.125
-0.125
-0.125
-0.125
-0.125
-0.125
-0.125
-0.125
-0.125
-0.125
-0.125
-0.125
-0.125
-0.125
-0.125
-0.125
-0.125
-0.125
-0.125
-0.125
-0.125
-0.125
-0.125
-0.125
-0.125
-0.125
-0.125
-0.125
-0.125
-0.125
-0.125
-0.125
-0.125
-0.125
-0.125
-0.125
-0.125
-0.125
-0.125
-0.125
-0.125
-0.125
-0.125
-0.125
-0.125
-0.125
-0.125
-0.125
-0.125
-0.125
-0.125
-0.125
-0.125
-0.125
-0.125
-0.125
-0.125
-0.125
-0.125
-0.125
-0.125
-0.125
-0.125
-0.125
-0.125
-0.125
-0.125
-0.125
-0.125
-0.125
-0.125
-0.125
-0.125
-0.125
-0.125
-0.125
-0.125
-0.125
-0.125
-0.125
-0.125
-0.125
-0.125
-0.125
-0.125
-0.125
-0.125
-0.125
-0.125
-0.125
-0.125
-0.125
-0.125
-0.125
-0.125
-0.125
-0.125
-0.125
-0.125
-0.125
-0.125
-0.125
-0.125
-0.125
-0.125
-0.125
-0.125
-0.125
-0.125
-0.125
-0.125
-0.125
-0.125
-0.125
-0.125
-0.125
-0.125
-0.125
-0.125
-0.125
-0.125
-0.125
-0.125
-0.125
-0.125
-0.125
-0.125
-0.125
-0.125
-0.125
-0.125
-0.125
-0.125
-0.125
-0.125
-0.125
-0.125
-0.125
-0.125
-0.125
-0.125
-0.125
-0.125
-0.125
-0.125
-0.125
-0.125
-0.125
-0.125
-0.125
-0.125
-0.125
-0.125
-0.125
-0.125
-0.125
-0.125
-0.125
-0.125
-0.125
-0.125
-0.125
-0.125
-0.125
-0.125
-0.125
-0.125
-0.125
-0.125
-0.125
-0.125
-0.125
-0.1
-0.075
-0.05
-0.025
0.0
0.0375
0.0625
0.0875
0.1125
0.1375
0.175
0.2
0.225
0.25
0.275
0.3125
0.3375
0.3625
0.3875
0.4125
0.4375
0.475
0.5
0.525
0.55
0.575
0.6125
0.6375
0.6625
0.6875
0.7125
0.75
0.7125
0.6875
0.6625
0.6375
0.6125
0.575
0.55
0.525
0.5
0.475
0.4375
0.4125
0.3875
0.3625
0.3375
0.3125
0.275
0.25
0.225
0.2
0.175
0.1375
0.1125
0.0875
0.0625
0.0375
0.0
-0.025
-0.05
-0.075
-0.1
-0.125
-0.15
-0.175
-0.2
-0.225
-0.2
-0.175
-0.15
-0.125
-0.125
-0.125
-0.125
-0.125
-0.125
-0.125
-0.125
-0.125
-0.125
-0.125
-0.125
-0.125
-0.125
-0.125
-0.125
-0.125
-0.125
-0.125
-0.125
-0.125
-0.125
-0.125
-0.125
-0.125
-0.125
-0.125
-0.125
-0.125
-0.125
-0.125
-0.125
-0.125
-0.125
-0.125
-0.125
-0.125
-0.125
-0.125
-0.125
-0.125
-0.125
-0.125
-0.125
-0.125
-0.125
-0.125
-0.125
-0.125
-0.125
-0.125
-0.125
-0.125
-0.125
-0.125
-0.125
-0.125
-0.125
-0.125
-0.125
-0.125
-0.125
-0.125
-0.125
-0.125
-0.125
-0.125
-0.125
-0.125
-0.125
-0.125
-0.125
-0.125
-0.125
-0.125
-0.125
-0.125
-0.125
-0.125
-0.125
-0.125
-0.125
-0.125
-0.125
-0.125
-0.125
-0.125
-0.125
-0.125
-0.125
-0.125
-0.125
-0.125
-0.125
-0.125
-0.125
-0.125
-0.125
-0.125
-0.125
-0.125
-0.125
-0.125
-0.125
-0.125
-0.125
-0.125
-0.125
-0.125
-0.125
-0.125
-0.125
-0.125
-0.125
-0.125
-0.125
-0.125
-0.125
-0.125
-0.125
-0.125
-0.125
-0.125
-0.125
-0.125
-0.125
-0.125
-0.125
-0.125
-0.125
-0.125
-0.125
-0.125
-0.125
-0.125
-0.125
-0.125
-0.125
-0.125
-0.125
-0.125
-0.125
-0.125
-0.125
-0.125
-0.125
-0.125
-0.125
-0.125
-0.125
-0.125
-0.125
-0.125
-0.125
-0.125
-0.125
-0.125
-0.125
-0.125
-0.125
-0.125
-0.125
-0.125
-0.125
-0.125
-0.125
-0.125
-0.125
-0.125
-0.125
-0.125
-0.125
-0.125
-0.125
-0.125
-0.125
-0.125
-0.125
-0.125
-0.125
-0.125
-0.125
-0.125
-0.125
-0.125
-0.125
-0.125
-0.125
-0.125
-0.125
-0.125
-0.125
-0.125
-0.125
-0.125
-0.125
-0.125
-0.125
-0.125
-0.125
-0.125
-0.125
-0.125
-0.125
-0.125
-0.125
-0.125
-0.125
-0.125
-0.125
-0.125
-0.125
-0.125
-0.125
-0.125
-0.125
-0.125
-0.125
-0.125
-0.125
-0.125
-0.125
-0.125
-0.125
-0.125
-0.125
-0.125
-0.125
-0.125
-0.125
-0.125
-0.125
-0.125
-0.125
-0.125
-0.125
-0.125
-0.125
-0.125
-0.125
-0.125
-0.125
-0.125
-0.125
-0.125
-0.125
-0.125
-0.125
-0.125
-0.125
-0.125
-0.125
-0.125
-0.125
-0.125
-0.125
-0.125
-0.125
-0.125
-0.125
-0.125
-0.125
-0.125
-0.125
-0.125
-0.125
-0.125
-0.125
-0.125
-0.125
-0.125
-0.125
-0.125
-0.125
-0.125
-0.125
-0.125
-0.125
-0.125
-0.125
-0.125
-0.125
-0.125
-0.125
-0.125
-0.125
-0.125
-0.125
-0.125
-0.125
-0.125
-0.125
-0.125
-0.125
-0.125
-0.125
-0.125
-0.125
-0.125
-0.125
-0.125
-0.125
-0.125
-0.125
-0.125
-0.125
-0.125
-0.125
-0.125
-0.125
-0.125
-0.125
-0.125
-0.125
-0.125
-0.125
-0.125
-0.125
-0.125
-0.125
-0.125
-0.125
-0.125
-0.125
-0.125
-0.125
-0.125
-0.125
-0.125
-0.125
-0.125
-0.125
-0.125
-0.125
-0.125
-0.125
-0.125
-0.125
-0.125
-0.125
-0.125
-0.125
-0.125
-0.125
-0.125
-0.125
-0.125
-0.125
-0.125
-0.125
-0.125
-0.125
-0.125
-0.125
-0.125
-0.125
-0.125
-0.125
-0.125
-0.125
-0.125
-0.125
-0.125
-0.125
-0.125
-0.125
-0.125
-0.125
-0.125
-0.125
-0.125
-0.125
-0.125
-0.125
-0.125
-0.125
-0.125
-0.125
-0.125
-0.125
-0.125
-0.125
-0.125
-0.125
-0.125
-0.125
-0.125
-0.125
-0.125
-0.125
-0.125
-0.125
-0.125
-0.125
-0.125
-0.125
-0.125
-0.125
-0.125
-0.125
-0.125
-0.125
-0.125
-0.125
-0.125
-0.125
-0.125
-0.125
-0.125
-0.125
-0.125
-0.125
-0.125
-0.125
-0.125
-0.125
-0.125
-0.125
-0.125
-0.125
-0.125
-0.125
-0.125
-0.125
-0.125
-0.125
-0.125
-0.125
-0.125
-0.125
-0.125
-0.125
-0.125
-0.125
-0.125
-0.125
-0.125
-0.125
-0.125
-0.125
-0.125
-0.125
-0.125
-0.125
-0.125
-0.125
-0.125
-0.125
-0.125
-0.125
-0.125
-0.125
-0.125
-0.125
-0.125
-0.125
-0.125
-0.125
-0.125
-0.125
-0.125
-0.125
-0.125
-0.125
-0.125
-0.125
-0.125
-0.125
-0.125
-0.1
-0.075
-0.05
-0.025
0.0
0.0375
0.0625
0.0875
0.1125
0.1375
0.175
0.2
0.225
0.25
0.275
0.3125
0.3375
0.3625
0.3875
0.4125
0.4375
0.475
0.5
0.525
0.55
0.575
0.6125
0.6375
0.6625
0.6875
0.7125
0.75
0.7125
0.6875
0.6625
0.6375
0.6125
0.575
0.55
0.525
0.5
0.475
0.4375
0.4125
0.3875
0.3625
0.3375
0.3125
0.275
0.25
0.225
0.2
0.175
0.1375
0.1125
0.0875
0.0625
0.0375
0.0
-0.025
-0.05
-0.075
-0.1
-0.125
-0.15
-0.175
-0.2
-0.225
-0.2
-0.175
-0.15
-0.125
-0.125
-0.125
-0.125
-0.125
-0.125
-0.125
-0.125
-0.125
-0.125
-0.125
-0.125
-0.125
-0.125
-0.125
-0.125
-0.125
-0.125
-0.125
-0.125
-0.125
-0.125
-0.125
-0.125
-0.125
-0.125
-0.125
-0.125
-0.125
-0.125
-0.125
-0.125
-0.125
-0.125
-0.125
-0.125
-0.125
-0.125
-0.125
-0.125
-0.125
-0.125
-0.125
-0.125
-0.125
-0.125
-0.125
-0.125
-0.125
-0.125
-0.125
-0.125
-0.125
-0.125
-0.125
-0.125
-0.125
-0.125
-0.125
-0.125
-0.125
-0.125
-0.125
-0.125
-0.125
-0.125
-0.125
-0.125
-0.125
-0.125
-0.125
-0.125
-0.125
-0.125
-0.125
-0.125
-0.125
-0.125
-0.125
-0.125
-0.125
-0.125
-0.125
-0.125
-0.125
-0.125
-0.125
-0.125
-0.125
-0.125
-0.125
-0.125
-0.125
-0.125
-0.125
-0.125
-0.125
-0.125
-0.125
-0.125
-0.125
-0.125
-0.125
-0.125
-0.125
-0.125
-0.125
-0.125
-0.125
-0.125
-0.125
-0.125
-0.125
-0.125
-0.125
-0.125
-0.125
-0.125
-0.125
-0.125
-0.125
-0.125
-0.125
-0.125
-0.125
-0.125
-0.125
-0.125
-0.125
-0.125
-0.125
-0.125
-0.125
-0.125
-0.125
-0.125
-0.125
-0.125
-0.125
-0.125
-0.125
-0.125
-0.125
-0.125
-0.125
-0.125
-0.125
-0.125
-0.125
-0.125
-0.125
-0.125
-0.125
-0.125
-0.125
-0.125
-0.125
-0.125
-0.125
-0.125
-0.125
-0.125
-0.125
-0.125
-0.125
-0.125
-0.125
-0.125
-0.125
-0.125
-0.125
-0.125
-0.125
-0.125
-0.125
-0.125
-0.125
-0.125
-0.125
-0.125
-0.125
-0.125
-0.125
-0.125
-0.125
-0.125
-0.125
-0.125
-0.125
-0.125
-0.125
-0.125
-0.125
-0.125
-0.125
-0.125
-0.125
-0.125
-0.125
-0.125
-0.125
-0.125
-0.125
-0.125
-0.125
-0.125
-0.125
-0.125
-0.125
-0.125
-0.125
-0.125
-0.125
-0.125
-0.125
-0.125
-0.125
-0.125
-0.125
-0.125
-0.125
-0.125
-0.125
-0.125
-0.125
-0.125
-0.125
-0.125
-0.125
-0.125
-0.125
-0.125
-0.125
-0.125
-0.125
-0.125
-0.125
-0.125
-0.125
-0.125
-0.125
-0.125
-0.125
-0.125
-0.125
-0.125
-0.125
-0.125
-0.125
-0.125
-0.125
-0.125
-0.125
-0.125
-0.125
-0.125
-0.125
-0.125
-0.125
-0.125
-0.125
-0.125
-0.125
-0.125
-0.125
-0.125
-0.125
-0.125
-0.125
-0.125
-0.125
-0.125
-0.125
-0.125
-0.125
-0.125
-0.125
-0.125
-0.125
-0.125
-0.125
-0.125
-0.125
-0.125
-0.125
-0.125
-0.125
-0.125
-0.125
-0.125
-0.125
-0.125
-0.125
-0.125
-0.125
-0.125
-0.125
-0.125
-0.125
-0.125
-0.125
-0.125
-0.125
-0.125
-0.125
-0.125
-0.125
-0.125
-0.125
-0.125
-0.125
-0.125
-0.125
-0.125
-0.125
-0.125
-0.125
-0.125
-0.125
-0.125
-0.125
-0.125
-0.125
-0.125
-0.125
-0.125
-0.125
-0.125
-0.125
-0.125
-0.125
-0.125
-0.125
-0.125
-0.125
-0.125
-0.125
-0.125
-0.125
-0.125
-0.125
-0.125
-0.125
-0.125
-0.125
-0.125
-0.125
-0.125
-0.125
-0.125
-0.125
-0.125
-0.125
-0.125
-0.125
-0.125
-0.125
-0.125
-0.125
-0.125
-0.125
-0.125
-0.125
-0.125
-0.125
-0.125
-0.125
-0.125
-0.125
-0.125
-0.125
-0.125
-0.125
-0.125
-0.125
-0.125
-0.125
-0.125
-0.125
-0.125
-0.125
-0.125
-0.125
-0.125
-0.125
-0.125
-0.125
-0.125
-0.125
-0.125
-0.125
-0.125
-0.125
-0.125
-0.125
-0.125
-0.125
-0.125
-0.125
-0.125
-0.125
-0.125
-0.125
-0.125
-0.125
-0.125
-0.125
-0.125
-0.125
-0.125
-0.125
-0.125
-0.125
-0.125
-0.125
-0.125
-0.125
-0.125
-0.125
-0.125
-0.125
-0.125
-0.125
-0.125
-0.125
-0.125
-0.125
-0.125
-0.125
-0.125
-0.125
-0.125
-0.125
-0.125
-0.125
-0.125
-0.125
-0.125
-0.125
-0.125
-0.125
-0.125
-0.125
-0.125
-0.125
-0.125
-0.125
-0.125
-0.125
-0.125
-0.125
-0.125
-0.125
-0.125
-0.125
-0.125
-0.125
-0.125
-0.125
-0.125
-0.125
-0.125
-0.125
-0.125
-0.125
-0.125
-0.125
-0.125
-0.125
-0.1
-0.075
-0.05
-0.025
0.0
0.0375
0.0625
0.0875
0.1125
0.1375
0.175
0.2
0.225
0.25
0.275
0.3125
0.3375
0.3625
0.3875
0.4125
0.4375
0.475
0.5
0.525
0.55
0.575
0.6125
0.6375
0.6625
0.6875
0.7125
0.75
0.7125
0.6875
0.6625
0.6375
0.6125
0.575
0.55
0.525
0.5
0.475
0.4375
0.4125
0.3875
0.3625
0.3375
0.3125
0.275
0.25
0.225
0.2
0.175
0.1375
0.1125
0.0875
0.0625
0.0375
0.0
-0.025
-0.05
-0.075
-0.1
-0.125
-0.15
-0.175
-0.2
-0.225
-0.2
-0.175
-0.15
-0.125
-0.125
-0.125
-0.125
-0.125
-0.125
-0.125
-0.125
-0.125
-0.125
-0.125
-0.125
-0.125
-0.125
-0.125
-0.125
-0.125
-0.125
-0.125
-0.125
-0.125
-0.125
-0.125
-0.125
-0.125
-0.125
-0.125
-0.125
-0.125
-0.125
-0.125
-0.125
-0.125
-0.125
-0.125
-0.125
