ECG
-0.15
-0.125
-0.1
-0.075
-0.05
-0.025
0.0
0.025
0.05
0.075
0.125
0.15
0.175
0.2
0.225
0.25
0.275
0.3
0.325
0.35
0.375
0.425
0.45
0.475
0.5
0.525
0.55
0.575
0.6
0.625
0.65
0.7
0.65
0.625
0.6
0.575
0.55
0.525
0.5
0.475
0.45
0.425
0.375
0.35
0.325
0.3
0.275
0.25
0.225
0.2
0.175
0.15
0.125
0.075
0.05
0.025
0.0
-0.025
-0.05
-0.075
-0.1
-0.125
-0.15
-0.175
-0.2
-0.225
-0.25
-0.275
-0.25
-0.225
-0.2
-0.175
-0.175
-0.175
-0.175
-0.175
-0.175
-0.175
-0.175
-0.175
-0.175
-0.175
-0.175
-0.175
-0.175
-0.175
-0.175
-0.175
-0.175
-0.175
-0.175
-0.175
-0.175
-0.175
-0.175
-0.175
-0.175
-0.175
-0.175
-0.175
-0.175
-0.175
-0.175
-0.175
-0.175
-0.175
-0.175
-0.175
-0.175
-0.175
-0.175
-0.175
-0.175
-0.175
-0.175
-0.175
-0.175
-0.175
-0.175
-0.175
-0.175
-0.175
-0.175
-0.175
-0.175
-0.175
-0.175
-0.175
-0.175
-0.175
-0.175
-0.175
-0.175
-0.175
-0.175
-0.175
-0.175
-0.175
-0.175
-0.175
-0.175
-0.175
-0.175
-0.175
-0.175
-0.175
-0.175
-0.175
-0.175
-0.175
-0.175
-0.175
-0.175
-0.175
-0.175
-0.175
-0.175
-0.175
-0.175
-0.175
-0.175
-0.175
-0.175
-0.175
-0.175
-0.175
-0.175
-0.175
-0.175
-0.175
-0.175
-0.175
-0.175
-0.175
-0.175
-0.175
-0.175
-0.175
-0.175
-0.175
-0.175
-0.175
-0.175
-0.175
-0.175
-0.175
-0.175
-0.175
-0.175
-0.175
-0.175
-0.175
-0.175
-0.175
-0.175
-0.175
-0.175
-0.175
-0.175
-0.175
-0.175
-0.175
-0.175
-0.175
-0.175
-0.175
-0.175
-0.175
-0.175
-0.175
-0.175
-0.175
-0.175
-0.175
-0.175
-0.175
-0.175
-0.175
-0.175
-0.175
-0.175
-0.175
-0.175
-0.175
-0.175
-0.175
-0.175
-0.175
-0.175
-0.175
-0.175
-0.175
-0.175
-0.175
-0.175
-0.175
-0.175
-0.175
-0.175
-0.175
-0.175
-0.175
-0.175
-0.175
-0.175
-0.175
-0.175
-0.175
-0.175
-0.175
-0.175
-0.175
-0.175
-0.175
-0.175
-0.175
-0.175
-0.175
-0.175
-0.175
-0.175
-0.175
-0.175
-0.175
-0.175
-0.175
-0.175
-0.175
-0.175
-0.175
-0.175
-0.175
-0.175
-0.175
-0.175
-0.175
-0.175
-0.175
-0.175
-0.175
-0.175
-0.175
-0.175
-0.175
-0.175
-0.175
-0.175
-0.175
-0.175
-0.175
-0.175
-0.175
-0.175
-0.175
-0.175
-0.175
-0.175
-0.175
-0.175
-0.175
-0.175
-0.175
-0.175
-0.175
-0.175
-0.175
-0.175
-0.175
-0.175
-0.175
-0.175
-0.175
-0.175
-0.175
-0.175
-0.175
-0.175
-0.175
-0.175
-0.175
-0.175
-0.175
-0.175
-0.175
-0.175
-0.175
-0.175
-0.175
-0.175
-0.175
-0.175
-0.175
-0.175
-0.175
-0.175
-0.175
-0.175
-0.175
-0.175
-0.175
-0.175
-0.175
-0.175
-0.175
-0.175
-0.175
-0.175
-0.175
-0.175
-0.175
-0.175
-0.175
-0.175
-0.175
-0.175
-0.175
-0.175
-0.175
-0.175
-0.175
-0.175
-0.175
-0.175
-0.175
-0.175
-0.175
-0.175
-0.175
-0.175
-0.175
-0.175
-0.175
-0.175
-0.175
-0.175
-0.175
-0.175
-0.175
-0.175
-0.175
-0.175
-0.175
-0.175
-0.175
-0.175
-0.175
-0.175
-0.175
-0.175
-0.175
-0.175
-0.175
-0.175
-0.175
-0.175
-0.175
-0.175
-0.175
-0.175
-0.175
-0.175
-0.175
-0.175
-0.175
-0.175
-0.175
-0.175
-0.175
-0.175
-0.175
-0.175
-0.175
-0.175
-0.175
-0.175
-0.175
-0.175
-0.175
-0.175
-0.175
-0.175
-0.175
-0.175
-0.175
-0.175
-0.175
-0.175
-0.175
-0.175
-0.175
-0.175
-0.175
-0.175
-0.175
-0.175
-0.175
-0.175
-0.175
-0.175
-0.175
-0.175
-0.175
-0.175
-0.175
-0.175
-0.175
-0.175
-0.175
-0.175
-0.175
-0.175
-0.175
-0.175
-0.175
-0.175
-0.175
-0.175
-0.175
-0.175
-0.175
-0.175
-0.175
-0.175
-0.175
-0.175
-0.175
-0.175
-0.175
-0.175
-0.175
-0.175
-0.175
-0.175
-0.175
-0.175
-0.175
-0.175
-0.175
-0.175
-0.175
-0.175
-0.175
-0.175
-0.175
-0.175
-0.175
-0.175
-0.175
-0.175
-0.175
-0.175
-0.175
-0.175
-0.175
-0.175
-0.175
-0.175
-0.175
-0.175
-0.175
-0.175
-0.175
-0.175
-0.175
-0.175
-0.175
-0.175
-0.175
-0.175
-0.175
-0.175
-0.175
-0.175
-0.175
-0.175
-0.175
-0.175
-0.175
-0.175
-0.175
-0.175
-0.175
-0.175
-0.175
-0.175
-0.175
-0.175
-0.175
-0.175
-0.175
-0.175
-0.175
-0.175
-0.175
-0.175
-0.175
-0.175
-0.175
-0.175
-0.175
-0.15
-0.125
-0.1
-0.075
-0.05
-0.025
0.0
0.025
0.05
0.075
0.125
0.15
0.175
0.2
0.225
0.25
0.275
0.3
0.325
0.35
0.375
0.425
0.45
0.475
0.5
0.525
0.55
0.575
0.6
0.625
0.65
0.7
0.65
0.625
0.6
0.575
0.55
0.525
0.5
0.475
0.45
0.425
0.375
0.35
0.325
0.3
0.275
0.25
0.225
0.2
0.175
0.15
0.125
0.075
0.05
0.025
0.0
-0.025
-0.05
-0.075
-0.1
-0.125
-0.15
-0.175
-0.2
-0.225
-0.25
-0.275
-0.25
-0.225
-0.2
-0.175
-0.175
-0.175
-0.175
-0.175
-0.175
-0.175
-0.175
-0.175
-0.175
-0.175
-0.175
-0.175
-0.175
-0.175
-0.175
-0.175
-0.175
-0.175
-0.175
-0.175
-0.175
-0.175
-0.175
-0.175
-0.175
-0.175
-0.175
-0.175
-0.175
-0.175
-0.175
-0.175
-0.175
-0.175
-0.175
-0.175
-0.175
-0.175
-0.175
-0.175
-0.175
-0.175
-0.175
-0.175
-0.175
-0.175
-0.175
-0.175
-0.175
-0.175
-0.175
-0.175
-0.175
-0.175
-0.175
-0.175
-0.175
-0.175
-0.175
-0.175
-0.175
-0.175
-0.175
-0.175
-0.175
-0.175
-0.175
-0.175
-0.175
-0.175
-0.175
-0.175
-0.175
-0.175
-0.175
-0.175
-0.175
-0.175
-0.175
-0.175
-0.175
-0.175
-0.175
-0.175
-0.175
-0.175
-0.175
-0.175
-0.175
-0.175
-0.175
-0.175
-0.175
-0.175
-0.175
-0.175
-0.175
-0.175
-0.175
-0.175
-0.175
-0.175
-0.175
-0.175
-0.175
-0.175
-0.175
-0.175
-0.175
-0.175
-0.175
-0.175
-0.175
-0.175
-0.175
-0.175
-0.175
-0.175
-0.175
-0.175
-0.175
-0.175
-0.175
-0.175
-0.175
-0.175
-0.175
-0.175
-0.175
-0.175
-0.175
-0.175
-0.175
-0.175
-0.175
-0.175
-0.175
-0.175
-0.175
-0.175
-0.175
-0.175
-0.175
-0.175
-0.175
-0.175
-0.175
-0.175
-0.175
-0.175
-0.175
-0.175
-0.175
-0.175
-0.175
-0.175
-0.175
-0.175
-0.175
-0.175
-0.175
-0.175
-0.175
-0.175
-0.175
-0.175
-0.175
-0.175
-0.175
-0.175
-0.175
-0.175
-0.175
-0.175
-0.175
-0.175
-0.175
-0.175
-0.175
-0.175
-0.175
-0.175
-0.175
-0.175
-0.175
-0.175
-0.175
-0.175
-0.175
-0.175
-0.175
-0.175
-0.175
-0.175
-0.175
-0.175
-0.175
-0.175
-0.175
-0.175
-0.175
-0.175
-0.175
-0.175
-0.175
-0.175
-0.175
-0.175
-0.175
-0.175
-0.175
-0.175
-0.175
-0.175
-0.175
-0.175
-0.175
-0.175
-0.175
-0.175
-0.175
-0.175
-0.175
-0.175
-0.175
-0.175
-0.175
-0.175
-0.175
-0.175
-0.175
-0.175
-0.175
-0.175
-0.175
-0.175
-0.175
-0.175
-0.175
-0.175
-0.175
-0.175
-0.175
-0.175
-0.175
-0.175
-0.175
-0.175
-0.175
-0.175
-0.175
-0.175
-0.175
-0.175
-0.175
-0.175
-0.175
-0.175
-0.175
-0.175
-0.175
-0.175
-0.175
-0.175
-0.175
-0.175
-0.175
-0.175
-0.175
-0.175
-0.175
-0.175
-0.175
-0.175
-0.175
-0.175
-0.175
-0.175
-0.175
-0.175
-0.175
-0.175
-0.175
-0.175
-0.175
-0.175
-0.175
-0.175
-0.175
-0.175
-0.175
-0.175
-0.175
-0.175
-0.175
-0.175
-0.175
-0.175
-0.175
-0.175
-0.175
-0.175
-0.175
-0.175
-0.175
-0.175
-0.175
-0.175
-0.175
-0.175
-0.175
-0.175
-0.175
-0.175
-0.175
-0.175
-0.175
-0.175
-0.175
-0.175
-0.175
-0.175
-0.175
-0.175
-0.175
-0.175
-0.175
-0.175
-0.175
-0.175
-0.175
-0.175
-0.175
-0.175
-0.175
-0.175
-0.175
-0.175
-0.175
-0.175
-0.175
-0.175
-0.175
-0.175
-0.175
-0.175
-0.175
-0.175
-0.175
-0.175
-0.175
-0.175
-0.175
-0.175
-0.175
-0.175
-0.175
-0.175
-0.175
-0.175
-0.175
-0.175
-0.175
-0.175
-0.175
-0.175
-0.175
-0.175
-0.175
-0.175
-0.175
-0.175
-0.175
-0.175
-0.175
-0.175
-0.175
-0.175
-0.175
-0.175
-0.175
-0.175
-0.175
-0.175
-0.175
-0.175
-0.175
-0.175
-0.175
-0.175
-0.175
-0.175
-0.175
-0.175
-0.175
-0.175
-0.175
-0.175
-0.175
-0.175
-0.175
-0.175
-0.175
-0.175
-0.175
-0.175
-0.175
-0.175
-0.175
-0.175
-0.175
-0.175
-0.175
-0.175
-0.175
-0.175
-0.175
-0.175
-0.175
-0.175
-0.175
-0.175
-0.175
-0.175
-0.175
-0.175
-0.175
-0.175
-0.175
-0.175
-0.175
-0.175
-0.175
-0.175
-0.175
-0.175
-0.175
-0.175
-0.175
-0.175
-0.175
-0.175
-0.175
-0.175
-0.175
-0.175
-0.175
-0.175
-0.175
-0.175
-0.175
-0.175
-0.175
-0.175
-0.175
-0.175
-0.175
-0.175
-0.175
-0.175
-0.175
-0.175
-0.175
-0.175
-0.175
-0.175
-0.175
-0.175
-0.15
-0.125
-0.1
-0.075
-0.05
-0.025
0.0
0.025
0.05
0.075
0.125
0.15
0.175
0.2
0.225
0.25
0.275
0.3
0.325
0.35
0.375
0.425
0.45
0.475
0.5
0.525
0.55
0.575
0.6
0.625
0.65
0.7
0.65
0.625
0.6
0.575
0.55
0.525
0.5
0.475
0.45
0.425
0.375
0.35
0.325
0.3
0.275
0.25
0.225
0.2
0.175
0.15
0.125
0.075
0.05
0.025
0.0
-0.025
-0.05
-0.075
-0.1
-0.125
-0.15
-0.175
-0.2
-0.225
-0.25
-0.275
-0.25
-0.225
-0.2
-0.175
-0.175
-0.175
-0.175
-0.175
-0.175
-0.175
-0.175
-0.175
-0.175
-0.175
-0.175
-0.175
-0.175
-0.175
-0.175
-0.175
-0.175
-0.175
-0.175
-0.175
-0.175
-0.175
-0.175
-0.175
-0.175
-0.175
-0.175
-0.175
-0.175
-0.175
-0.175
-0.175
-0.175
-0.175
-0.175
-0.175
-0.175
-0.175
-0.175
-0.175
-0.175
-0.175
-0.175
-0.175
-0.175
-0.175
-0.175
-0.175
-0.175
-0.175
-0.175
-0.175
-0.175
-0.175
-0.175
-0.175
-0.175
-0.175
-0.175
-0.175
-0.175
-0.175
-0.175
-0.175
-0.175
-0.175
-0.175
-0.175
-0.175
-0.175
-0.175
-0.175
-0.175
-0.175
-0.175
-0.175
-0.175
-0.175
-0.175
-0.175
-0.175
-0.175
-0.175
-0.175
-0.175
-0.175
-0.175
-0.175
-0.175
-0.175
-0.175
-0.175
-0.175
-0.175
-0.175
-0.175
-0.175
-0.175
-0.175
-0.175
-0.175
-0.175
-0.175
-0.175
-0.175
-0.175
-0.175
-0.175
-0.175
-0.175
-0.175
-0.175
-0.175
-0.175
-0.175
-0.175
-0.175
-0.175
-0.175
-0.175
-0.175
-0.175
-0.175
-0.175
-0.175
-0.175
-0.175
-0.175
-0.175
-0.175
-0.175
-0.175
-0.175
-0.175
-0.175
-0.175
-0.175
-0.175
-0.175
-0.175
-0.175
-0.175
-0.175
-0.175
-0.175
-0.175
-0.175
-0.175
-0.175
-0.175
-0.175
-0.175
-0.175
-0.175
-0.175
-0.175
-0.175
-0.175
-0.175
-0.175
-0.175
-0.175
-0.175
-0.175
-0.175
-0.175
-0.175
-0.175
-0.175
-0.175
-0.175
-0.175
-0.175
-0.175
-0.175
-0.175
-0.175
-0.175
-0.175
-0.175
-0.175
-0.175
-0.175
-0.175
-0.175
-0.175
-0.175
-0.175
-0.175
-0.175
-0.175
-0.175
-0.175
-0.175
-0.175
-0.175
-0.175
-0.175
-0.175
-0.175
-0.175
-0.175
-0.175
-0.175
-0.175
-0.175
-0.175
-0.175
-0.175
-0.175
-0.175
-0.175
-0.175
-0.175
-0.175
-0.175
-0.175
-0.175
-0.175
-0.175
-0.175
-0.175
-0.175
-0.175
-0.175
-0.175
-0.175
-0.175
-0.175
-0.175
-0.175
-0.175
-0.175
-0.175
-0.175
-0.175
-0.175
-0.175
-0.175
-0.175
-0.175
-0.175
-0.175
-0.175
-0.175
-0.175
-0.175
-0.175
-0.175
-0.175
-0.175
-0.175
-0.175
-0.175
-0.175
-0.175
-0.175
-0.175
-0.175
-0.175
-0.175
-0.175
-0.175
-0.175
-0.175
-0.175
-0.175
-0.175
-0.175
-0.175
-0.175
-0.175
-0.175
-0.175
-0.175
-0.175
-0.175
-0.175
-0.175
-0.175
-0.175
-0.175
-0.175
-0.175
-0.175
-0.175
-0.175
-0.175
-0.175
-0.175
-0.175
-0.175
-0.175
-0.175
-0.175
-0.175
-0.175
-0.175
-0.175
-0.175
-0.175
-0.175
-0.175
-0.175
-0.175
-0.175
-0.175
-0.175
-0.175
-0.175
-0.175
-0.175
-0.175
-0.175
-0.175
-0.175
-0.175
-0.175
-0.175
-0.175
-0.175
-0.175
-0.175
-0.175
-0.175
-0.175
-0.175
-0.175
-0.175
-0.175
-0.175
-0.175
-0.175
-0.175
-0.175
-0.175
-0.175
-0.175
-0.175
-0.175
-0.175
-0.175
-0.175
-0.175
-0.175
-0.175
-0.175
-0.175
-0.175
-0.175
-0.175
-0.175
-0.175
-0.175
-0.175
-0.175
-0.175
-0.175
-0.175
-0.175
-0.175
-0.175
-0.175
-0.175
-0.175
-0.175
-0.175
-0.175
-0.175
-0.175
-0.175
-0.175
-0.175
-0.175
-0.175
-0.175
-0.175
-0.175
-0.175
-0.175
-0.175
-0.175
-0.175
-0.175
-0.175
-0.175
-0.175
-0.175
-0.175
-0.175
-0.175
-0.175
-0.175
-0.175
-0.175
-0.175
-0.175
-0.175
-0.175
-0.175
-0.175
-0.175
-0.175
-0.175
-0.175
-0.175
-0.175
-0.175
-0.175
-0.175
-0.175
-0.175
-0.175
-0.175
-0.175
-0.175
-0.175
-0.175
-0.175
-0.175
-0.175
-0.175
-0.175
-0.175
-0.175
-0.175
-0.175
-0.175
-0.175
-0.175
-0.175
-0.175
-0.175
-0.175
-0.175
-0.175
-0.175
-0.175
-0.175
-0.175
-0.175
-0.175
-0.175
-0.175
-0.175
-0.175
-0.175
-0.175
-0.175
-0.175
-0.175
-0.175
-0.175
-0.175
-0.175
-0.175
-0.175
-0.175
-0.175
-0.175
-0.175
-0.175
-0.175
-0.175
-0.175
-0.175
-0.175
-0.175
-0.15
-0.125
-0.1
-0.075
-0.05
-0.025
0.0
0.025
0.05
0.075
0.125
0.15
0.175
0.2
0.225
0.25
0.275
0.3
0.325
0.35
0.375
0.425
0.45
0.475
0.5
0.525
0.55
0.575
0.6
0.625
0.65
0.7
0.65
0.625
0.6
0.575
0.55
0.525
0.5
0.475
0.45
0.425
0.375
0.35
0.325
0.3
0.275
0.25
0.225
0.2
0.175
0.15
0.125
0.075
0.05
0.025
0.0
-0.025
-0.05
-0.075
-0.1
-0.125
-0.15
-0.175
-0.2
-0.225
-0.25
-0.275
-0.25
-0.225
-0.2
-0.175
-0.175
-0.175
-0.175
-0.175
-0.175
-0.175
-0.175
-0.175
-0.175
-0.175
-0.175
-0.175
-0.175
-0.175
-0.175
-0.175
-0.175
-0.175
-0.175
-0.175
-0.175
-0.175
-0.175
-0.175
-0.175
-0.175
-0.175
-0.175
-0.175
-0.175
-0.175
-0.175
-0.175
-0.175
-0.175
-0.175
-0.175
-0.175
-0.175
-0.175
-0.175
-0.175
-0.175
-0.175
-0.175
-0.175
-0.175
-0.175
-0.175
-0.175
-0.175
-0.175
-0.175
-0.175
-0.175
-0.175
-0.175
-0.175
-0.175
-0.175
-0.175
-0.175
-0.175
-0.175
-0.175
-0.175
-0.175
-0.175
-0.175
-0.175
-0.175
-0.175
-0.175
-0.175
-0.175
-0.175
-0.175
-0.175
-0.175
-0.175
-0.175
-0.175
-0.175
-0.175
-0.175
-0.175
-0.175
-0.175
-0.175
-0.175
-0.175
-0.175
-0.175
-0.175
-0.175
-0.175
-0.175
-0.175
-0.175
-0.175
-0.175
-0.175
-0.175
-0.175
-0.175
-0.175
-0.175
-0.175
-0.175
-0.175
-0.175
-0.175
-0.175
-0.175
-0.175
-0.175
-0.175
-0.175
-0.175
-0.175
-0.175
-0.175
-0.175
-0.175
-0.175
-0.175
-0.175
-0.175
-0.175
-0.175
-0.175
-0.175
-0.175
-0.175
-0.175
-0.175
-0.175
-0.175
-0.175
-0.175
-0.175
-0.175
-0.175
-0.175
-0.175
-0.175
-0.175
-0.175
-0.175
-0.175
-0.175
-0.175
-0.175
-0.175
-0.175
-0.175
-0.175
-0.175
-0.175
-0.175
-0.175
-0.175
-0.175
-0.175
-0.175
-0.175
-0.175
-0.175
-0.175
-0.175
-0.175
-0.175
-0.175
-0.175
-0.175
-0.175
-0.175
-0.175
-0.175
-0.175
-0.175
-0.175
-0.175
-0.175
-0.175
-0.175
-0.175
-0.175
-0.175
-0.175
-0.175
-0.175
-0.175
-0.175
-0.175
-0.175
-0.175
-0.175
-0.175
-0.175
-0.175
-0.175
-0.175
-0.175
-0.175
-0.175
-0.175
-0.175
-0.175
-0.175
-0.175
-0.175
-0.175
-0.175
-0.175
-0.175
-0.175
-0.175
-0.175
-0.175
-0.175
-0.175
-0.175
-0.175
-0.175
-0.175
-0.175
-0.175
-0.175
-0.175
-0.175
-0.175
-0.175
-0.175
-0.175
-0.175
-0.175
-0.175
-0.175
-0.175
-0.175
-0.175
-0.175
-0.175
-0.175
-0.175
-0.175
-0.175
-0.175
-0.175
-0.175
-0.175
-0.175
-0.175
-0.175
-0.175
-0.175
-0.175
-0.175
-0.175
-0.175
-0.175
-0.175
-0.175
-0.175
-0.175
-0.175
-0.175
-0.175
-0.175
-0.175
-0.175
-0.175
-0.175
-0.175
-0.175
-0.175
-0.175
-0.175
-0.175
-0.175
-0.175
-0.175
-0.175
-0.175
-0.175
-0.175
-0.175
-0.175
-0.175
-0.175
-0.175
-0.175
-0.175
-0.175
-0.175
-0.175
-0.175
-0.175
-0.175
-0.175
-0.175
-0.175
-0.175
-0.175
-0.175
-0.175
-0.175
-0.175
-0.175
-0.175
-0.175
-0.175
-0.175
-0.175
-0.175
-0.175
-0.175
-0.175
-0.175
-0.175
-0.175
-0.175
-0.175
-0.175
-0.175
-0.175
-0.175
-0.175
-0.175
-0.175
-0.175
-0.175
-0.175
-0.175
-0.175
-0.175
-0.175
-0.175
-0.175
-0.175
-0.175
-0.175
-0.175
-0.175
-0.175
-0.175
-0.175
-0.175
-0.175
-0.175
-0.175
-0.175
-0.175
-0.175
-0.175
-0.175
-0.175
-0.175
-0.175
-0.175
-0.175
-0.175
-0.175
-0.175
-0.175
-0.175
-0.175
-0.175
-0.175
-0.175
-0.175
-0.175
-0.175
-0.175
-0.175
-0.175
-0.175
-0.175
-0.175
-0.175
-0.175
-0.175
-0.175
-0.175
-0.175
-0.175
-0.175
-0.175
-0.175
-0.175
-0.175
-0.175
-0.175
-0.175
-0.175
-0.175
-0.175
-0.175
-0.175
-0.175
-0.175
-0.175
-0.175
-0.175
-0.175
-0.175
-0.175
-0.175
-0.175
-0.175
-0.175
-0.175
-0.175
-0.175
-0.175
-0.175
-0.175
-0.175
-0.175
-0.175
-0.175
-0.175
-0.175
-0.175
-0.175
-0.175
-0.175
-0.175
-0.175
-0.175
-0.175
-0.175
-0.175
-0.175
-0.175
-0.175
-0.175
-0.175
-0.175
-0.175
-0.175
-0.175
-0.175
-0.175
-0.175
-0.175
-0.175
-0.175
-0.175
-0.175
-0.175
-0.175
-0.175
-0.175
-0.175
-0.175
-0.175
-0.175
-0.175
-0.175
-0.175
-0.175
-0.175
-0.175
-0.175
-0.175
-0.175
-0.15
-0.125
-0.1
-0.075
-0.05
-0.025
0.0
0.025
0.05
0.075
0.125
0.15
0.175
0.2
0.225
0.25
0.275
0.3
0.325
0.35
0.375
0.425
0.45
0.475
0.5
0.525
0.55
0.575
0.6
0.625
0.65
0.7
0.65
0.625
0.6
0.575
0.55
0.525
0.5
0.475
0.45
0.425
0.375
0.35
0.325
0.3
0.275
0.25
0.225
0.2
0.175
0.15
0.125
0.075
0.05
0.025
0.0
-0.025
-0.05
-0.075
-0.1
-0.125
-0.15
-0.175
-0.2
-0.225
-0.25
-0.275
-0.25
-0.225
-0.2
-0.175
-0.175
-0.175
-0.175
-0.175
-0.175
-0.175
-0.175
-0.175
-0.175
-0.175
-0.175
-0.175
-0.175
-0.175
-0.175
-0.175
-0.175
-0.175
-0.175
-0.175
-0.175
-0.175
-0.175
-0.175
-0.175
-0.175
-0.175
-0.175
-0.175
-0.175
-0.175
-0.175
-0.175
-0.175
-0.175
-0.175
-0.175
-0.175
-0.175
-0.175
-0.175
-0.175
-0.175
-0.175
-0.175
-0.175
-0.175
-0.175
-0.175
-0.175
-0.175
-0.175
-0.175
-0.175
-0.175
-0.175
-0.175
-0.175
-0.175
-0.175
-0.175
-0.175
-0.175
-0.175
-0.175
-0.175
-0.175
-0.175
-0.175
-0.175
-0.175
-0.175
-0.175
-0.175
-0.175
-0.175
-0.175
-0.175
-0.175
-0.175
-0.175
-0.175
-0.175
-0.175
-0.175
-0.175
-0.175
-0.175
-0.175
-0.175
-0.175
-0.175
-0.175
-0.175
-0.175
-0.175
-0.175
-0.175
-0.175
-0.175
-0.175
-0.175
-0.175
-0.175
-0.175
-0.175
-0.175
-0.175
-0.175
-0.175
-0.175
-0.175
-0.175
-0.175
-0.175
-0.175
-0.175
-0.175
-0.175
-0.175
-0.175
-0.175
-0.175
-0.175
-0.175
-0.175
-0.175
-0.175
-0.175
-0.175
-0.175
-0.175
-0.175
-0.175
-0.175
-0.175
-0.175
-0.175
-0.175
-0.175
-0.175
-0.175
-0.175
-0.175
-0.175
-0.175
-0.175
-0.175
-0.175
-0.175
-0.175
-0.175
-0.175
-0.175
-0.175
-0.175
-0.175
-0.175
-0.175
-0.175
-0.175
-0.175
-0.175
-0.175
-0.175
-0.175
-0.175
-0.175
-0.175
-0.175
-0.175
-0.175
-0.175
-0.175
-0.175
-0.175
-0.175
-0.175
-0.175
-0.175
-0.175
-0.175
-0.175
-0.175
-0.175
-0.175
-0.175
-0.175
-0.175
-0.175
-0.175
-0.175
-0.175
-0.175
-0.175
-0.175
-0.175
-0.175
-0.175
-0.175
-0.175
-0.175
-0.175
-0.175
-0.175
-0.175
-0.175
-0.175
-0.175
-0.175
-0.175
-0.175
-0.175
-0.175
-0.175
-0.175
-0.175
-0.175
-0.175
-0.175
-0.175
-0.175
-0.175
-0.175
-0.175
-0.175
-0.175
-0.175
-0.175
-0.175
-0.175
-0.175
-0.175
-0.175
-0.175
-0.175
-0.175
-0.175
-0.175
-0.175
-0.175
-0.175
-0.175
-0.175
-0.175
-0.175
-0.175
-0.175
-0.175
-0.175
-0.175
-0.175
-0.175
-0.175
-0.175
-0.175
-0.175
-0.175
-0.175
-0.175
-0.175
-0.175
-0.175
-0.175
-0.175
-0.175
-0.175
-0.175
-0.175
-0.175
-0.175
-0.175
-0.175
-0.175
-0.175
-0.175
-0.175
-0.175
-0.175
-0.175
-0.175
-0.175
-0.175
-0.175
-0.175
-0.175
-0.175
-0.175
-0.175
-0.175
-0.175
-0.175
-0.175
-0.175
-0.175
-0.175
-0.175
-0.175
-0.175
-0.175
-0.175
-0.175
-0.175
-0.175
-0.175
-0.175
-0.175
-0.175
-0.175
-0.175
-0.175
-0.175
-0.175
-0.175
-0.175
-0.175
-0.175
-0.175
-0.175
-0.175
-0.175
-0.175
-0.175
-0.175
-0.175
-0.175
-0.175
-0.175
-0.175
-0.175
-0.175
-0.175
-0.175
-0.175
-0.175
-0.175
-0.175
-0.175
-0.175
-0.175
-0.175
-0.175
-0.175
-0.175
-0.175
-0.175
-0.175
-0.175
-0.175
-0.175
-0.175
-0.175
-0.175
-0.175
-0.175
-0.175
-0.175
-0.175
-0.175
-0.175
-0.175
-0.175
-0.175
-0.175
-0.175
-0.175
-0.175
-0.175
-0.175
-0.175
-0.175
-0.175
-0.175
-0.175
-0.175
-0.175
-0.175
-0.175
-0.175
-0.175
-0.175
-0.175
-0.175
-0.175
-0.175
-0.175
-0.175
-0.175
-0.175
-0.175
-0.175
-0.175
-0.175
-0.175
-0.175
-0.175
-0.175
-0.175
-0.175
-0.175
-0.175
-0.175
-0.175
-0.175
-0.175
-0.175
-0.175
-0.175
-0.175
-0.175
-0.175
-0.175
-0.175
-0.175
-0.175
-0.175
-0.175
-0.175
-0.175
-0.175
-0.175
-0.175
-0.175
-0.175
-0.175
-0.175
-0.175
-0.175
-0.175
-0.175
-0.175
-0.175
-0.175
-0.175
-0.175
-0.175
-0.175
-0.175
-0.175
-0.175
-0.175
-0.175
-0.175
-0.175
-0.175
-0.175
-0.175
-0.175
-0.175
-0.175
-0.175
-0.175
-0.175
-0.175
-0.175
-0.175
-0.175
-0.175
-0.175
-0.175
-0.175
-0.175
-0.175
-0.175
-0.175
-0.175
-0.175
-0.175
-0.15
-0.125
-0.1
-0.075
-0.05
-0.025
0.0
0.025
0.05
0.075
0.125
0.15
0.175
0.2
0.225
0.25
0.275
0.3
0.325
0.35
0.375
0.425
0.45
0.475
0.5
0.525
0.55
0.575
0.6
0.625
0.65
0.7
0.65
0.625
0.6
0.575
0.55
0.525
0.5
0.475
0.45
0.425
0.375
0.35
0.325
0.3
0.275
0.25
0.225
0.2
0.175
0.15
0.125
0.075
0.05
0.025
0.0
-0.025
-0.05
-0.075
-0.1
-0.125
-0.15
-0.175
-0.2
-0.225
-0.25
-0.275
-0.25
-0.225
-0.2
-0.175
-0.175
-0.175
-0.175
-0.175
-0.175
-0.175
-0.175
-0.175
-0.175
-0.175
-0.175
-0.175
-0.175
-0.175
-0.175
-0.175
-0.175
-0.175
-0.175
-0.175
-0.175
-0.175
-0.175
-0.175
-0.175
-0.175
-0.175
-0.175
-0.175
-0.175
-0.175
-0.175
-0.175
-0.175
-0.175
-0.175
-0.175
-0.175
-0.175
-0.175
-0.175
-0.175
-0.175
-0.175
-0.175
-0.175
-0.175
-0.175
-0.175
-0.175
-0.175
-0.175
-0.175
-0.175
-0.175
-0.175
-0.175
-0.175
-0.175
-0.175
-0.175
-0.175
-0.175
-0.175
-0.175
-0.175
-0.175
-0.175
-0.175
-0.175
-0.175
-0.175
-0.175
-0.175
-0.175
-0.175
-0.175
-0.175
-0.175
-0.175
-0.175
-0.175
-0.175
-0.175
-0.175
-0.175
-0.175
-0.175
-0.175
-0.175
-0.175
-0.175
-0.175
-0.175
-0.175
-0.175
-0.175
-0.175
-0.175
-0.175
-0.175
-0.175
-0.175
-0.175
-0.175
-0.175
-0.175
-0.175
-0.175
-0.175
-0.175
-0.175
-0.175
-0.175
-0.175
-0.175
-0.175
-0.175
-0.175
-0.175
-0.175
-0.175
-0.175
-0.175
-0.175
-0.175
-0.175
-0.175
-0.175
-0.175
-0.175
-0.175
-0.175
-0.175
-0.175
-0.175
-0.175
-0.175
-0.175
-0.175
-0.175
-0.175
-0.175
-0.175
-0.175
-0.175
-0.175
-0.175
-0.175
-0.175
-0.175
-0.175
-0.175
-0.175
-0.175
-0.175
-0.175
-0.175
-0.175
-0.175
-0.175
-0.175
-0.175
-0.175
-0.175
-0.175
-0.175
-0.175
-0.175
-0.175
-0.175
-0.175
-0.175
-0.175
-0.175
-0.175
-0.175
-0.175
-0.175
-0.175
-0.175
-0.175
-0.175
-0.175
-0.175
-0.175
-0.175
-0.175
-0.175
-0.175
-0.175
-0.175
-0.175
-0.175
-0.175
-0.175
-0.175
-0.175
-0.175
-0.175
-0.175
-0.175
-0.175
-0.175
-0.175
-0.175
-0.175
-0.175
-0.175
-0.175
-0.175
-0.175
-0.175
-0.175
-0.175
-0.175
-0.175
-0.175
-0.175
-0.175
-0.175
-0.175
-0.175
-0.175
-0.175
-0.175
-0.175
-0.175
-0.175
-0.175
-0.175
-0.175
-0.175
-0.175
-0.175
-0.175
-0.175
-0.175
-0.175
-0.175
-0.175
-0.175
-0.175
-0.175
-0.175
-0.175
-0.175
-0.175
-0.175
-0.175
-0.175
-0.175
-0.175
-0.175
-0.175
-0.175
-0.175
-0.175
-0.175
-0.175
-0.175
-0.175
-0.175
-0.175
-0.175
-0.175
-0.175
-0.175
-0.175
-0.175
-0.175
-0.175
-0.175
-0.175
-0.175
-0.175
-0.175
-0.175
-0.175
-0.175
-0.175
-0.175
-0.175
-0.175
-0.175
-0.175
-0.175
-0.175
-0.175
-0.175
-0.175
-0.175
-0.175
-0.175
-0.175
-0.175
-0.175
-0.175
-0.175
-0.175
-0.175
-0.175
-0.175
-0.175
-0.175
-0.175
-0.175
-0.175
-0.175
-0.175
-0.175
-0.175
-0.175
-0.175
-0.175
-0.175
-0.175
-0.175
-0.175
-0.175
-0.175
-0.175
-0.175
-0.175
-0.175
-0.175
-0.175
-0.175
-0.175
-0.175
-0.175
-0.175
-0.175
-0.175
-0.175
-0.175
-0.175
-0.175
-0.175
-0.175
-0.175
-0.175
-0.175
-0.175
-0.175
-0.175
-0.175
-0.175
-0.175
-0.175
-0.175
-0.175
-0.175
-0.175
-0.175
-0.175
-0.175
-0.175
-0.175
-0.175
-0.175
-0.175
-0.175
-0.175
-0.175
-0.175
-0.175
-0.175
-0.175
-0.175
-0.175
-0.175
-0.175
-0.175
-0.175
-0.175
-0.175
-0.175
-0.175
-0.175
-0.175
-0.175
-0.175
-0.175
-0.175
-0.175
-0.175
-0.175
-0.175
-0.175
-0.175
-0.175
-0.175
-0.175
-0.175
-0.175
-0.175
-0.175
-0.175
-0.175
-0.175
-0.175
-0.175
-0.175
-0.175
-0.175
-0.175
-0.175
-0.175
-0.175
-0.175
-0.175
-0.175
-0.175
-0.175
-0.175
-0.175
-0.175
-0.175
-0.175
-0.175
-0.175
-0.175
-0.175
-0.175
-0.175
-0.175
-0.175
-0.175
-0.175
-0.175
-0.175
-0.175
-0.175
-0.175
-0.175
-0.175
-0.175
-0.175
-0.175
-0.175
-0.175
-0.175
-0.175
-0.175
-0.175
-0.175
-0.175
-0.175
-0.175
-0.175
-0.175
-0.175
-0.175
-0.175
-0.175
-0.175
-0.175
-0.175
-0.175
-0.175
-0.175
-0.175
-0.175
-0.175
-0.175
-0.175
-0.175
-0.15
-0.125
-0.1
-0.075
-0.05
-0.025
0.0
0.025
0.05
0.075
0.125
0.15
0.175
0.2
0.225
0.25
0.275
0.3
0.325
0.35
0.375
0.425
0.45
0.475
0.5
0.525
0.55
0.575
0.6
0.625
0.65
0.7
0.65
0.625
0.6
0.575
0.55
0.525
0.5
0.475
0.45
0.425
0.375
0.35
0.325
0.3
0.275
0.25
0.225
0.2
0.175
0.15
0.125
0.075
0.05
0.025
0.0
-0.025
-0.05
-0.075
-0.1
-0.125
-0.15
-0.175
-0.2
-0.225
-0.25
-0.275
-0.25
-0.225
-0.2
-0.175
-0.175
-0.175
-0.175
-0.175
-0.175
-0.175
-0.175
-0.175
-0.175
-0.175
-0.175
-0.175
-0.175
-0.175
-0.175
-0.175
-0.175
-0.175
-0.175
-0.175
-0.175
-0.175
-0.175
-0.175
-0.175
-0.175
-0.175
-0.175
-0.175
-0.175
-0.175
-0.175
-0.175
-0.175
-0.175
-0.175
-0.175
-0.175
-0.175
-0.175
-0.175
-0.175
-0.175
-0.175
-0.175
-0.175
-0.175
-0.175
-0.175
-0.175
-0.175
-0.175
-0.175
-0.175
-0.175
-0.175
-0.175
-0.175
-0.175
-0.175
-0.175
-0.175
-0.175
-0.175
-0.175
-0.175
-0.175
-0.175
-0.175
-0.175
-0.175
-0.175
-0.175
-0.175
-0.175
-0.175
-0.175
-0.175
-0.175
-0.175
-0.175
-0.175
-0.175
-0.175
-0.175
-0.175
-0.175
-0.175
-0.175
-0.175
-0.175
-0.175
-0.175
-0.175
-0.175
-0.175
-0.175
-0.175
-0.175
-0.175
-0.175
-0.175
-0.175
-0.175
-0.175
-0.175
-0.175
-0.175
-0.175
-0.175
-0.175
-0.175
-0.175
-0.175
-0.175
-0.175
-0.175
-0.175
-0.175
-0.175
-0.175
-0.175
-0.175
-0.175
-0.175
-0.175
-0.175
-0.175
-0.175
-0.175
-0.175
-0.175
-0.175
-0.175
-0.175
-0.175
-0.175
-0.175
-0.175
-0.175
-0.175
-0.175
-0.175
-0.175
-0.175
-0.175
-0.175
-0.175
-0.175
-0.175
-0.175
-0.175
-0.175
-0.175
-0.175
-0.175
-0.175
-0.175
-0.175
-0.175
-0.175
-0.175
-0.175
-0.175
-0.175
-0.175
-0.175
-0.175
-0.175
-0.175
-0.175
-0.175
-0.175
-0.175
-0.175
-0.175
-0.175
-0.175
-0.175
-0.175
-0.175
-0.175
-0.175
-0.175
-0.175
-0.175
-0.175
-0.175
-0.175
-0.175
-0.175
-0.175
-0.175
-0.175
-0.175
-0.175
-0.175
-0.175
-0.175
-0.175
-0.175
-0.175
-0.175
-0.175
-0.175
-0.175
-0.175
-0.175
-0.175
-0.175
-0.175
-0.175
-0.175
-0.175
-0.175
-0.175
-0.175
-0.175
-0.175
-0.175
-0.175
-0.175
-0.175
-0.175
-0.175
-0.175
-0.175
-0.175
-0.175
-0.175
-0.175
-0.175
-0.175
-0.175
-0.175
-0.175
-0.175
-0.175
-0.175
-0.175
-0.175
-0.175
-0.175
-0.175
-0.175
-0.175
-0.175
-0.175
-0.175
-0.175
-0.175
-0.175
-0.175
-0.175
-0.175
-0.175
-0.175
-0.175
-0.175
-0.175
-0.175
-0.175
-0.175
-0.175
-0.175
-0.175
-0.175
-0.175
-0.175
-0.175
-0.175
-0.175
-0.175
-0.175
-0.175
-0.175
-0.175
-0.175
-0.175
-0.175
-0.175
-0.175
-0.175
-0.175
-0.175
-0.175
-0.175
-0.175
-0.175
-0.175
-0.175
-0.175
-0.175
-0.175
-0.175
-0.175
-0.175
-0.175
-0.175
-0.175
-0.175
-0.175
-0.175
-0.175
-0.175
-0.175
-0.175
-0.175
-0.175
-0.175
-0.175
-0.175
-0.175
-0.175
-0.175
-0.175
-0.175
-0.175
-0.175
-0.175
-0.175
-0.175
-0.175
-0.175
-0.175
-0.175
-0.175
-0.175
-0.175
-0.175
-0.175
-0.175
-0.175
-0.175
-0.175
-0.175
-0.175
-0.175
-0.175
-0.175
-0.175
-0.175
-0.175
-0.175
-0.175
-0.175
-0.175
-0.175
-0.175
-0.175
-0.175
-0.175
-0.175
-0.175
-0.175
-0.175
-0.175
-0.175
-0.175
-0.175
-0.175
-0.175
-0.175
-0.175
-0.175
-0.175
-0.175
-0.175
-0.175
-0.175
-0.175
-0.175
-0.175
-0.175
-0.175
-0.175
-0.175
-0.175
-0.175
-0.175
-0.175
-0.175
-0.175
-0.175
-0.175
-0.175
-0.175
-0.175
-0.175
-0.175
-0.175
-0.175
-0.175
-0.175
-0.175
-0.175
-0.175
-0.175
-0.175
-0.175
-0.175
-0.175
-0.175
-0.175
-0.175
-0.175
-0.175
-0.175
-0.175
-0.175
-0.175
-0.175
-0.175
-0.175
-0.175
-0.175
-0.175
-0.175
-0.175
-0.175
-0.175
-0.175
-0.175
-0.175
-0.175
-0.175
-0.175
-0.175
-0.175
-0.175
-0.175
-0.175
-0.175
-0.175
-0.175
-0.175
-0.175
-0.175
-0.175
-0.175
-0.175
-0.175
-0.175
-0.175
-0.175
-0.175
-0.175
-0.175
-0.175
-0.175
-0.175
-0.175
-0.175
-0.175
-0.175
-0.175
-0.175
-0.175
-0.175
-0.175
-0.175
-0.175
-0.175
-0.175
-0.175
-0.175
-0.175
-0.175
-0.15
-0.125
-0.1
-0.075
-0.05
-0.025
0.0
0.025
0.05
0.075
0.125
0.15
0.175
0.2
0.225
0.25
0.275
0.3
0.325
0.35
0.375
0.425
0.45
0.475
0.5
0.525
0.55
0.575
0.6
0.625
0.65
0.7
0.65
0.625
0.6
0.575
0.55
0.525
0.5
0.475
0.45
0.425
0.375
0.35
0.325
0.3
0.275
0.25
0.225
0.2
0.175
0.15
0.125
0.075
0.05
0.025
0.0
-0.025
-0.05
-0.075
-0.1
-0.125
-0.15
-0.175
-0.2
-0.225
-0.25
-0.275
-0.25
-0.225
-0.2
-0.175
-0.175
-0.175
-0.175
-0.175
-0.175
-0.175
-0.175
-0.175
-0.175
-0.175
-0.175
-0.175
-0.175
-0.175
-0.175
-0.175
-0.175
-0.175
-0.175
-0.175
-0.175
-0.175
-0.175
-0.175
-0.175
-0.175
-0.175
-0.175
-0.175
-0.175
-0.175
-0.175
-0.175
-0.175
-0.175
-0.175
-0.175
-0.175
-0.175
-0.175
-0.175
-0.175
-0.175
-0.175
-0.175
-0.175
-0.175
-0.175
-0.175
-0.175
-0.175
-0.175
-0.175
-0.175
-0.175
-0.175
-0.175
-0.175
-0.175
-0.175
-0.175
-0.175
-0.175
-0.175
-0.175
-0.175
-0.175
-0.175
-0.175
-0.175
-0.175
-0.175
-0.175
-0.175
-0.175
-0.175
-0.175
-0.175
-0.175
-0.175
-0.175
-0.175
-0.175
-0.175
-0.175
-0.175
-0.175
-0.175
-0.175
-0.175
-0.175
-0.175
-0.175
-0.175
-0.175
-0.175
-0.175
-0.175
-0.175
-0.175
-0.175
-0.175
-0.175
-0.175
-0.175
-0.175
-0.175
-0.175
-0.175
-0.175
-0.175
-0.175
-0.175
-0.175
-0.175
-0.175
-0.175
-0.175
-0.175
-0.175
-0.175
-0.175
-0.175
-0.175
-0.175
-0.175
-0.175
-0.175
-0.175
-0.175
-0.175
-0.175
-0.175
-0.175
-0.175
-0.175
-0.175
-0.175
-0.175
-0.175
-0.175
-0.175
-0.175
-0.175
-0.175
-0.175
-0.175
-0.175
-0.175
-0.175
-0.175
-0.175
-0.175
-0.175
-0.175
-0.175
-0.175
-0.175
-0.175
-0.175
-0.175
-0.175
-0.175
-0.175
-0.175
-0.175
-0.175
-0.175
-0.175
-0.175
-0.175
-0.175
-0.175
-0.175
-0.175
-0.175
-0.175
-0.175
-0.175
-0.175
-0.175
-0.175
-0.175
-0.175
-0.175
-0.175
-0.175
-0.175
-0.175
-0.175
-0.175
-0.175
-0.175
-0.175
-0.175
-0.175
-0.175
-0.175
-0.175
-0.175
-0.175
-0.175
-0.175
-0.175
-0.175
-0.175
-0.175
-0.175
-0.175
-0.175
-0.175
-0.175
-0.175
-0.175
-0.175
-0.175
-0.175
-0.175
-0.175
-0.175
-0.175
-0.175
-0.175
-0.175
-0.175
-0.175
-0.175
-0.175
-0.175
-0.175
-0.175
-0.175
-0.175
-0.175
-0.175
-0.175
-0.175
-0.175
-0.175
-0.175
-0.175
-0.175
-0.175
-0.175
-0.175
-0.175
-0.175
-0.175
-0.175
-0.175
-0.175
-0.175
-0.175
-0.175
-0.175
-0.175
-0.175
-0.175
-0.175
-0.175
-0.175
-0.175
-0.175
-0.175
-0.175
-0.175
-0.175
-0.175
-0.175
-0.175
-0.175
-0.175
-0.175
-0.175
-0.175
-0.175
-0.175
-0.175
-0.175
-0.175
-0.175
-0.175
-0.175
-0.175
-0.175
-0.175
-0.175
-0.175
-0.175
-0.175
-0.175
-0.175
-0.175
-0.175
-0.175
-0.175
-0.175
-0.175
-0.175
-0.175
-0.175
-0.175
-0.175
-0.175
-0.175
-0.175
-0.175
-0.175
-0.175
-0.175
-0.175
-0.175
-0.175
-0.175
-0.175
-0.175
-0.175
-0.175
-0.175
-0.175
-0.175
-0.175
-0.175
-0.175
-0.175
-0.175
-0.175
-0.175
-0.175
-0.175
-0.175
-0.175
-0.175
-0.175
-0.175
-0.175
-0.175
-0.175
-0.175
-0.175
-0.175
-0.175
-0.175
-0.175
-0.175
-0.175
-0.175
-0.175
-0.175
-0.175
-0.175
-0.175
-0.175
-0.175
-0.175
-0.175
-0.175
-0.175
-0.175
-0.175
-0.175
-0.175
-0.175
-0.175
-0.175
-0.175
-0.175
-0.175
-0.175
-0.175
-0.175
-0.175
-0.175
-0.175
-0.175
-0.175
-0.175
-0.175
-0.175
-0.175
-0.175
-0.175
-0.175
-0.175
-0.175
-0.175
-0.175
-0.175
-0.175
-0.175
-0.175
-0.175
-0.175
-0.175
-0.175
-0.175
-0.175
-0.175
-0.175
-0.175
-0.175
-0.175
-0.175
-0.175
-0.175
-0.175
-0.175
-0.175
-0.175
-0.175
-0.175
-0.175
-0.175
-0.175
-0.175
-0.175
-0.175
-0.175
-0.175
-0.175
-0.175
-0.175
-0.175
-0.175
-0.175
-0.175
-0.175
-0.175
-0.175
-0.175
-0.175
-0.175
-0.175
-0.175
-0.175
-0.175
-0.175
-0.175
-0.175
-0.175
-0.175
-0.175
-0.175
-0.175
-0.175
-0.175
-0.175
-0.175
-0.175
-0.175
-0.175
-0.175
-0.175
-0.175
-0.175
-0.175
-0.175
-0.175
-0.175
-0.175
-0.175
-0.175
-0.175
-0.175
-0.175
-0.175
-0.175
-0.175
-0.15
-0.125
-0.1
-0.075
-0.05
-0.025
0.0
0.025
0.05
0.075
0.125
0.15
0.175
0.2
0.225
0.25
0.275
0.3
0.325
0.35
0.375
0.425
0.45
0.475
0.5
0.525
0.55
0.575
0.6
0.625
0.65
0.7
0.65
0.625
0.6
0.575
0.55
0.525
0.5
0.475
0.45
0.425
0.375
0.35
0.325
0.3
0.275
0.25
0.225
0.2
0.175
0.15
0.125
0.075
0.05
0.025
0.0
-0.025
-0.05
-0.075
-0.1
-0.125
-0.15
-0.175
-0.2
-0.225
-0.25
-0.275
-0.25
-0.225
-0.2
-0.175
-0.175
-0.175
-0.175
-0.175
-0.175
-0.175
-0.175
-0.175
-0.175
-0.175
-0.175
-0.175
-0.175
-0.175
-0.175
-0.175
-0.175
-0.175
-0.175
-0.175
-0.175
-0.175
-0.175
-0.175
-0.175
-0.175
-0.175
-0.175
-0.175
-0.175
-0.175
-0.175
-0.175
-0.175
-0.175
-0.175
-0.175
-0.175
-0.175
-0.175
-0.175
-0.175
-0.175
-0.175
-0.175
-0.175
-0.175
-0.175
-0.175
-0.175
-0.175
-0.175
-0.175
-0.175
-0.175
-0.175
-0.175
-0.175
-0.175
-0.175
-0.175
-0.175
-0.175
-0.175
-0.175
-0.175
-0.175
-0.175
-0.175
-0.175
-0.175
-0.175
-0.175
-0.175
-0.175
-0.175
-0.175
-0.175
-0.175
-0.175
-0.175
-0.175
-0.175
-0.175
-0.175
-0.175
-0.175
-0.175
-0.175
-0.175
-0.175
-0.175
-0.175
-0.175
-0.175
-0.175
-0.175
-0.175
-0.175
-0.175
-0.175
-0.175
-0.175
-0.175
-0.175
-0.175
-0.175
-0.175
-0.175
-0.175
-0.175
-0.175
-0.175
-0.175
-0.175
-0.175
-0.175
-0.175
-0.175
-0.175
-0.175
-0.175
-0.175
-0.175
-0.175
-0.175
-0.175
-0.175
-0.175
-0.175
-0.175
-0.175
-0.175
-0.175
-0.175
-0.175
-0.175
-0.175
-0.175
-0.175
-0.175
-0.175
-0.175
-0.175
-0.175
-0.175
-0.175
-0.175
-0.175
-0.175
-0.175
-0.175
-0.175
-0.175
-0.175
-0.175
-0.175
-0.175
-0.175
-0.175
-0.175
-0.175
-0.175
-0.175
-0.175
-0.175
-0.175
-0.175
-0.175
-0.175
-0.175
-0.175
-0.175
-0.175
-0.175
-0.175
-0.175
-0.175
-0.175
-0.175
-0.175
-0.175
-0.175
-0.175
-0.175
-0.175
-0.175
-0.175
-0.175
-0.175
-0.175
-0.175
-0.175
-0.175
-0.175
-0.175
-0.175
-0.175
-0.175
-0.175
-0.175
-0.175
-0.175
-0.175
-0.175
-0.175
-0.175
-0.175
-0.175
-0.175
-0.175
-0.175
-0.175
-0.175
-0.175
-0.175
-0.175
-0.175
-0.175
-0.175
-0.175
-0.175
-0.175
-0.175
-0.175
-0.175
-0.175
-0.175
-0.175
-0.175
-0.175
-0.175
-0.175
-0.175
-0.175
-0.175
-0.175
-0.175
-0.175
-0.175
-0.175
-0.175
-0.175
-0.175
-0.175
-0.175
-0.175
-0.175
-0.175
-0.175
-0.175
-0.175
-0.175
-0.175
-0.175
-0.175
-0.175
-0.175
-0.175
-0.175
-0.175
-0.175
-0.175
-0.175
-0.175
-0.175
-0.175
-0.175
-0.175
-0.175
-0.175
-0.175
-0.175
-0.175
-0.175
-0.175
-0.175
-0.175
-0.175
-0.175
-0.175
-0.175
-0.175
-0.175
-0.175
-0.175
-0.175
-0.175
-0.175
-0.175
-0.175
-0.175
-0.175
-0.175
-0.175
-0.175
-0.175
-0.175
-0.175
-0.175
-0.175
-0.175
-0.175
-0.175
-0.175
-0.175
-0.175
-0.175
-0.175
-0.175
-0.175
-0.175
-0.175
-0.175
-0.175
-0.175
-0.175
-0.175
-0.175
-0.175
-0.175
-0.175
-0.175
-0.175
-0.175
-0.175
-0.175
-0.175
-0.175
-0.175
-0.175
-0.175
-0.175
-0.175
-0.175
-0.175
-0.175
-0.175
-0.175
-0.175
-0.175
-0.175
-0.175
-0.175
-0.175
-0.175
-0.175
-0.175
-0.175
-0.175
-0.175
-0.175
-0.175
-0.175
-0.175
-0.175
-0.175
-0.175
-0.175
-0.175
-0.175
-0.175
-0.175
-0.175
-0.175
-0.175
-0.175
-0.175
-0.175
-0.175
-0.175
-0.175
-0.175
-0.175
-0.175
-0.175
-0.175
-0.175
-0.175
-0.175
-0.175
-0.175
-0.175
-0.175
-0.175
-0.175
-0.175
-0.175
-0.175
-0.175
-0.175
-0.175
-0.175
-0.175
-0.175
-0.175
-0.175
-0.175
-0.175
-0.175
-0.175
-0.175
-0.175
-0.175
-0.175
-0.175
-0.175
-0.175
-0.175
-0.175
-0.175
-0.175
-0.175
-0.175
-0.175
-0.175
-0.175
-0.175
-0.175
-0.175
-0.175
-0.175
-0.175
-0.175
-0.175
-0.175
-0.175
-0.175
-0.175
-0.175
-0.175
-0.175
-0.175
-0.175
-0.175
-0.175
-0.175
-0.175
-0.175
-0.175
-0.175
-0.175
-0.175
-0.175
-0.175
-0.175
-0.175
-0.175
-0.175
-0.175
-0.175
-0.175
-0.175
-0.175
-0.175
-0.175
-0.175
-0.175
-0.175
-0.175
-0.175
-0.175
-0.175
-0.175
-0.175
-0.175
-0.175
-0.175
-0.15
-0.125
-0.1
-0.075
-0.05
-0.025
0.0
0.025
0.05
0.075
0.125
0.15
0.175
0.2
0.225
0.25
0.275
0.3
0.325
0.35
0.375
0.425
0.45
0.475
0.5
0.525
0.55
0.575
0.6
0.625
0.65
0.7
0.65
0.625
0.6
0.575
0.55
0.525
0.5
0.475
0.45
0.425
0.375
0.35
0.325
0.3
0.275
0.25
0.225
0.2
0.175
0.15
0.125
0.075
0.05
0.025
0.0
-0.025
-0.05
-0.075
-0.1
-0.125
-0.15
-0.175
-0.2
-0.225
-0.25
-0.275
-0.25
-0.225
-0.2
-0.175
-0.175
-0.175
-0.175
-0.175
-0.175
-0.175
-0.175
-0.175
-0.175
-0.175
-0.175
-0.175
-0.175
-0.175
-0.175
-0.175
-0.175
-0.175
-0.175
-0.175
-0.175
-0.175
-0.175
-0.175
-0.175
-0.175
-0.175
-0.175
-0.175
-0.175
-0.175
-0.175
-0.175
-0.175
-0.175
-0.175
-0.175
-0.175
-0.175
-0.175
-0.175
-0.175
-0.175
-0.175
-0.175
-0.175
-0.175
-0.175
-0.175
-0.175
-0.175
-0.175
-0.175
-0.175
-0.175
-0.175
-0.175
-0.175
-0.175
-0.175
-0.175
-0.175
-0.175
-0.175
-0.175
-0.175
-0.175
-0.175
-0.175
-0.175
-0.175
-0.175
-0.175
-0.175
-0.175
-0.175
-0.175
-0.175
-0.175
-0.175
-0.175
-0.175
-0.175
-0.175
-0.175
-0.175
-0.175
-0.175
-0.175
-0.175
-0.175
-0.175
-0.175
-0.175
-0.175
-0.175
-0.175
-0.175
-0.175
-0.175
-0.175
-0.175
-0.175
-0.175
-0.175
-0.175
-0.175
-0.175
-0.175
-0.175
-0.175
-0.175
-0.175
-0.175
-0.175
-0.175
-0.175
-0.175
-0.175
-0.175
-0.175
-0.175
-0.175
-0.175
-0.175
-0.175
-0.175
-0.175
-0.175
-0.175
-0.175
-0.175
-0.175
-0.175
-0.175
-0.175
-0.175
-0.175
-0.175
-0.175
-0.175
-0.175
-0.175
-0.175
-0.175
-0.175
-0.175
-0.175
-0.175
-0.175
-0.175
-0.175
-0.175
-0.175
-0.175
-0.175
-0.175
-0.175
-0.175
-0.175
-0.175
-0.175
-0.175
-0.175
-0.175
-0.175
-0.175
-0.175
-0.175
-0.175
-0.175
-0.175
-0.175
-0.175
-0.175
-0.175
-0.175
-0.175
-0.175
-0.175
-0.175
-0.175
-0.175
-0.175
-0.175
-0.175
-0.175
-0.175
-0.175
-0.175
-0.175
-0.175
-0.175
-0.175
-0.175
-0.175
-0.175
-0.175
-0.175
-0.175
-0.175
-0.175
-0.175
-0.175
-0.175
-0.175
-0.175
-0.175
-0.175
-0.175
-0.175
-0.175
-0.175
-0.175
-0.175
-0.175
-0.175
-0.175
-0.175
-0.175
-0.175
-0.175
-0.175
-0.175
-0.175
-0.175
-0.175
-0.175
-0.175
-0.175
-0.175
-0.175
-0.175
-0.175
-0.175
-0.175
-0.175
-0.175
-0.175
-0.175
-0.175
-0.175
-0.175
-0.175
-0.175
-0.175
-0.175
-0.175
-0.175
-0.175
-0.175
-0.175
-0.175
-0.175
-0.175
-0.175
-0.175
-0.175
-0.175
-0.175
-0.175
-0.175
-0.175
-0.175
-0.175
-0.175
-0.175
-0.175
-0.175
-0.175
-0.175
-0.175
-0.175
-0.175
-0.175
-0.175
-0.175
-0.175
-0.175
-0.175
-0.175
-0.175
-0.175
-0.175
-0.175
-0.175
-0.175
-0.175
-0.175
-0.175
-0.175
-0.175
-0.175
-0.175
-0.175
-0.175
-0.175
-0.175
-0.175
-0.175
-0.175
-0.175
-0.175
-0.175
-0.175
-0.175
-0.175
-0.175
-0.175
-0.175
-0.175
-0.175
-0.175
-0.175
-0.175
-0.175
-0.175
-0.175
-0.175
-0.175
-0.175
-0.175
-0.175
-0.175
-0.175
-0.175
-0.175
-0.175
-0.175
-0.175
-0.175
-0.175
-0.175
-0.175
-0.175
-0.175
-0.175
-0.175
-0.175
-0.175
-0.175
-0.175
-0.175
-0.175
-0.175
-0.175
-0.175
-0.175
-0.175
-0.175
-0.175
-0.175
-0.175
-0.175
-0.175
-0.175
-0.175
-0.175
-0.175
-0.175
-0.175
-0.175
-0.175
-0.175
-0.175
-0.175
-0.175
-0.175
-0.175
-0.175
-0.175
-0.175
-0.175
-0.175
-0.175
-0.175
-0.175
-0.175
-0.175
-0.175
-0.175
-0.175
-0.175
-0.175
-0.175
-0.175
-0.175
-0.175
-0.175
-0.175
-0.175
-0.175
-0.175
-0.175
-0.175
-0.175
-0.175
-0.175
-0.175
-0.175
-0.175
-0.175
-0.175
-0.175
-0.175
-0.175
-0.175
-0.175
-0.175
-0.175
-0.175
-0.175
-0.175
-0.175
-0.175
-0.175
-0.175
-0.175
-0.175
-0.175
-0.175
-0.175
-0.175
-0.175
-0.175
-0.175
-0.175
-0.175
-0.175
-0.175
-0.175
-0.175
-0.175
-0.175
-0.175
-0.175
-0.175
-0.175
-0.175
-0.175
-0.175
-0.175
-0.175
-0.175
-0.175
-0.175
-0.175
-0.175
-0.175
-0.175
-0.175
-0.175
-0.175
-0.175
-0.175
-0.175
-0.175
-0.175
-0.175
-0.175
-0.175
-0.175
-0.175
-0.175
-0.175
-0.175
-0.175
-0.175
-0.15
-0.125
-0.1
-0.075
-0.05
-0.025
0.0
0.025
0.05
0.075
0.125
0.15
0.175
0.2
0.225
0.25
0.275
0.3
0.325
0.35
0.375
0.425
0.45
0.475
0.5
0.525
0.55
0.575
0.6
0.625
0.65
0.7
0.65
0.625
0.6
0.575
0.55
0.525
0.5
0.475
0.45
0.425
0.375
0.35
0.325
0.3
0.275
0.25
0.225
0.2
0.175
0.15
0.125
0.075
0.05
0.025
0.0
-0.025
-0.05
-0.075
-0.1
-0.125
-0.15
-0.175
-0.2
-0.225
-0.25
-0.275
-0.25
-0.225
-0.2
-0.175
-0.175
-0.175
-0.175
-0.175
-0.175
-0.175
-0.175
-0.175
-0.175
-0.175
-0.175
-0.175
-0.175
-0.175
-0.175
-0.175
-0.175
-0.175
-0.175
-0.175
-0.175
-0.175
-0.175
-0.175
-0.175
-0.175
-0.175
-0.175
-0.175
-0.175
-0.175
-0.175
-0.175
-0.175
-0.175
-0.175
-0.175
-0.175
-0.175
-0.175
-0.175
-0.175
-0.175
-0.175
-0.175
-0.175
-0.175
-0.175
-0.175
-0.175
-0.175
-0.175
-0.175
-0.175
-0.175
-0.175
-0.175
-0.175
-0.175
-0.175
-0.175
-0.175
-0.175
-0.175
-0.175
-0.175
-0.175
-0.175
-0.175
-0.175
-0.175
-0.175
-0.175
-0.175
-0.175
-0.175
-0.175
-0.175
-0.175
-0.175
-0.175
-0.175
-0.175
-0.175
-0.175
-0.175
-0.175
-0.175
-0.175
-0.175
-0.175
-0.175
-0.175
-0.175
-0.175
-0.175
-0.175
-0.175
-0.175
-0.175
-0.175
-0.175
-0.175
-0.175
-0.175
-0.175
-0.175
-0.175
-0.175
-0.175
-0.175
-0.175
-0.175
-0.175
-0.175
-0.175
-0.175
-0.175
-0.175
-0.175
-0.175
-0.175
-0.175
-0.175
-0.175
-0.175
-0.175
-0.175
-0.175
-0.175
-0.175
-0.175
-0.175
-0.175
-0.175
-0.175
-0.175
-0.175
-0.175
-0.175
-0.175
-0.175
-0.175
-0.175
-0.175
-0.175
-0.175
-0.175
-0.175
-0.175
-0.175
-0.175
-0.175
-0.175
-0.175
-0.175
-0.175
-0.175
-0.175
-0.175
-0.175
-0.175
-0.175
-0.175
-0.175
-0.175
-0.175
-0.175
-0.175
-0.175
-0.175
-0.175
-0.175
-0.175
-0.175
-0.175
-0.175
-0.175
-0.175
-0.175
-0.175
-0.175
-0.175
-0.175
-0.175
-0.175
-0.175
-0.175
-0.175
-0.175
-0.175
-0.175
-0.175
-0.175
-0.175
-0.175
-0.175
-0.175
-0.175
-0.175
-0.175
-0.175
-0.175
-0.175
-0.175
-0.175
-0.175
-0.175
-0.175
-0.175
-0.175
-0.175
-0.175
-0.175
-0.175
-0.175
-0.175
-0.175
-0.175
-0.175
-0.175
-0.175
-0.175
-0.175
-0.175
-0.175
-0.175
-0.175
-0.175
-0.175
-0.175
-0.175
-0.175
-0.175
-0.175
-0.175
-0.175
-0.175
-0.175
-0.175
-0.175
-0.175
-0.175
-0.175
-0.175
-0.175
-0.175
-0.175
-0.175
-0.175
-0.175
-0.175
-0.175
-0.175
-0.175
-0.175
-0.175
-0.175
-0.175
-0.175
-0.175
-0.175
-0.175
-0.175
-0.175
-0.175
-0.175
-0.175
-0.175
-0.175
-0.175
-0.175
-0.175
-0.175
-0.175
-0.175
-0.175
-0.175
-0.175
-0.175
-0.175
-0.175
-0.175
-0.175
-0.175
-0.175
-0.175
-0.175
-0.175
-0.175
-0.175
-0.175
-0.175
-0.175
-0.175
-0.175
-0.175
-0.175
-0.175
-0.175
-0.175
-0.175
-0.175
-0.175
-0.175
-0.175
-0.175
-0.175
-0.175
-0.175
-0.175
-0.175
-0.175
-0.175
-0.175
-0.175
-0.175
-0.175
-0.175
-0.175
-0.175
-0.175
-0.175
-0.175
-0.175
-0.175
-0.175
-0.175
-0.175
-0.175
-0.175
-0.175
-0.175
-0.175
-0.175
-0.175
-0.175
-0.175
-0.175
-0.175
-0.175
-0.175
-0.175
-0.175
-0.175
-0.175
-0.175
-0.175
-0.175
-0.175
-0.175
-0.175
-0.175
-0.175
-0.175
-0.175
-0.175
-0.175
-0.175
-0.175
-0.175
-0.175
-0.175
-0.175
-0.175
-0.175
-0.175
-0.175
-0.175
-0.175
-0.175
-0.175
-0.175
-0.175
-0.175
-0.175
-0.175
-0.175
-0.175
-0.175
-0.175
-0.175
-0.175
-0.175
-0.175
-0.175
-0.175
-0.175
-0.175
-0.175
-0.175
-0.175
-0.175
-0.175
-0.175
-0.175
-0.175
-0.175
-0.175
-0.175
-0.175
-0.175
-0.175
-0.175
-0.175
-0.175
-0.175
-0.175
-0.175
-0.175
-0.175
-0.175
-0.175
-0.175
-0.175
-0.175
-0.175
-0.175
-0.175
-0.175
-0.175
-0.175
-0.175
-0.175
-0.175
-0.175
-0.175
-0.175
-0.175
-0.175
-0.175
-0.175
-0.175
-0.175
-0.175
-0.175
-0.175
-0.175
-0.175
-0.175
-0.175
-0.175
-0.175
-0.175
-0.175
-0.175
-0.175
-0.175
-0.175
-0.175
-0.175
-0.175
-0.175
-0.175
-0.175
-0.175
-0.175
-0.175
-0.175
-0.175
-0.175
-0.175
-0.175
-0.175
-0.175
-0.175
-0.175
-0.175
-0.15
-0.125
-0.1
-0.075
-0.05
-0.025
0.0
0.025
0.05
0.075
0.125
0.15
0.175
0.2
0.225
0.25
0.275
0.3
0.325
0.35
0.375
0.425
0.45
0.475
0.5
0.525
0.55
0.575
0.6
0.625
0.65
0.7
0.65
0.625
0.6
0.575
0.55
0.525
0.5
0.475
0.45
0.425
0.375
0.35
0.325
0.3
0.275
0.25
0.225
0.2
0.175
0.15
0.125
0.075
0.05
0.025
0.0
-0.025
-0.05
-0.075
-0.1
-0.125
-0.15
-0.175
-0.2
-0.225
-0.25
-0.275
-0.25
-0.225
-0.2
-0.175
-0.175
-0.175
-0.175
-0.175
-0.175
-0.175
-0.175
-0.175
-0.175
-0.175
-0.175
-0.175
-0.175
-0.175
-0.175
-0.175
-0.175
-0.175
-0.175
-0.175
-0.175
-0.175
-0.175
-0.175
-0.175
-0.175
-0.175
-0.175
-0.175
-0.175
-0.175
-0.175
-0.175
-0.175
-0.175
-0.175
-0.175
-0.175
-0.175
-0.175
-0.175
-0.175
-0.175
-0.175
-0.175
-0.175
-0.175
-0.175
-0.175
-0.175
-0.175
-0.175
-0.175
-0.175
-0.175
-0.175
-0.175
-0.175
-0.175
-0.175
-0.175
-0.175
-0.175
-0.175
-0.175
-0.175
-0.175
-0.175
-0.175
-0.175
-0.175
-0.175
-0.175
-0.175
-0.175
-0.175
-0.175
-0.175
-0.175
-0.175
-0.175
-0.175
-0.175
-0.175
-0.175
-0.175
-0.175
-0.175
-0.175
-0.175
-0.175
-0.175
-0.175
-0.175
-0.175
-0.175
-0.175
-0.175
-0.175
-0.175
-0.175
-0.175
-0.175
-0.175
-0.175
-0.175
-0.175
-0.175
-0.175
-0.175
-0.175
-0.175
-0.175
-0.175
-0.175
-0.175
-0.175
-0.175
-0.175
-0.175
-0.175
-0.175
-0.175
-0.175
-0.175
-0.175
-0.175
-0.175
-0.175
-0.175
-0.175
-0.175
-0.175
-0.175
-0.175
-0.175
-0.175
-0.175
-0.175
-0.175
-0.175
-0.175
-0.175
-0.175
-0.175
-0.175
-0.175
-0.175
-0.175
-0.175
-0.175
-0.175
-0.175
-0.175
-0.175
-0.175
-0.175
-0.175
-0.175
-0.175
-0.175
-0.175
-0.175
-0.175
-0.175
-0.175
-0.175
-0.175
-0.175
-0.175
-0.175
-0.175
-0.175
-0.175
-0.175
-0.175
-0.175
-0.175
-0.175
-0.175
-0.175
-0.175
-0.175
-0.175
-0.175
-0.175
-0.175
-0.175
-0.175
-0.175
-0.175
-0.175
-0.175
-0.175
-0.175
-0.175
-0.175
-0.175
-0.175
-0.175
-0.175
-0.175
-0.175
-0.175
-0.175
-0.175
-0.175
-0.175
-0.175
-0.175
-0.175
-0.175
-0.175
-0.175
-0.175
-0.175
-0.175
-0.175
-0.175
-0.175
-0.175
-0.175
-0.175
-0.175
-0.175
-0.175
-0.175
-0.175
-0.175
-0.175
-0.175
-0.175
-0.175
-0.175
-0.175
-0.175
-0.175
-0.175
-0.175
-0.175
-0.175
-0.175
-0.175
-0.175
-0.175
-0.175
-0.175
-0.175
-0.175
-0.175
-0.175
-0.175
-0.175
-0.175
-0.175
-0.175
-0.175
-0.175
-0.175
-0.175
-0.175
-0.175
-0.175
-0.175
-0.175
-0.175
-0.175
-0.175
-0.175
-0.175
-0.175
-0.175
-0.175
-0.175
-0.175
-0.175
-0.175
-0.175
-0.175
-0.175
-0.175
-0.175
-0.175
-0.175
-0.175
-0.175
-0.175
-0.175
-0.175
-0.175
-0.175
-0.175
-0.175
-0.175
-0.175
-0.175
-0.175
-0.175
-0.175
-0.175
-0.175
-0.175
-0.175
-0.175
-0.175
-0.175
-0.175
-0.175
-0.175
-0.175
-0.175
-0.175
-0.175
-0.175
-0.175
-0.175
-0.175
-0.175
-0.175
-0.175
-0.175
-0.175
-0.175
-0.175
-0.175
-0.175
-0.175
-0.175
-0.175
-0.175
-0.175
-0.175
-0.175
-0.175
-0.175
-0.175
-0.175
-0.175
-0.175
-0.175
-0.175
-0.175
-0.175
-0.175
-0.175
-0.175
-0.175
-0.175
-0.175
-0.175
-0.175
-0.175
-0.175
-0.175
-0.175
-0.175
-0.175
-0.175
-0.175
-0.175
-0.175
-0.175
-0.175
-0.175
-0.175
-0.175
-0.175
-0.175
-0.175
-0.175
-0.175
-0.175
-0.175
-0.175
-0.175
-0.175
-0.175
-0.175
-0.175
-0.175
-0.175
-0.175
-0.175
-0.175
-0.175
-0.175
-0.175
-0.175
-0.175
-0.175
-0.175
-0.175
-0.175
-0.175
-0.175
-0.175
-0.175
-0.175
-0.175
-0.175
-0.175
-0.175
-0.175
-0.175
-0.175
-0.175
-0.175
-0.175
-0.175
-0.175
-0.175
-0.175
-0.175
-0.175
-0.175
-0.175
-0.175
-0.175
-0.175
-0.175
-0.175
-0.175
-0.175
-0.175
-0.175
-0.175
-0.175
-0.175
-0.175
-0.175
-0.175
-0.175
-0.175
-0.175
-0.175
-0.175
-0.175
-0.175
-0.175
-0.175
-0.175
-0.175
-0.175
-0.175
-0.175
-0.175
-0.175
-0.175
-0.175
-0.175
-0.175
-0.175
-0.175
-0.175
-0.175
-0.175
-0.175
-0.175
-0.175
-0.175
-0.175
-0.175
-0.175
-0.175
-0.175
-0.175
-0.175
-0.175
-0.15
-0.125
-0.1
-0.075
-0.05
-0.025
0.0
0.025
0.05
0.075
0.125
0.15
0.175
0.2
0.225
0.25
0.275
0.3
0.325
0.35
0.375
0.425
0.45
0.475
0.5
0.525
0.55
0.575
0.6
0.625
0.65
0.7
0.65
0.625
0.6
0.575
0.55
0.525
0.5
0.475
0.45
0.425
0.375
0.35
0.325
0.3
0.275
0.25
0.225
0.2
0.175
0.15
0.125
0.075
0.05
0.025
0.0
-0.025
-0.05
-0.075
-0.1
-0.125
-0.15
-0.175
-0.2
-0.225
-0.25
-0.275
-0.25
-0.225
-0.2
-0.175
-0.175
-0.175
-0.175
-0.175
-0.175
-0.175
-0.175
-0.175
-0.175
-0.175
-0.175
-0.175
-0.175
-0.175
-0.175
-0.175
-0.175
-0.175
-0.175
-0.175
-0.175
-0.175
-0.175
-0.175
-0.175
-0.175
-0.175
-0.175
-0.175
-0.175
-0.175
-0.175
-0.175
-0.175
-0.175
-0.175
-0.175
-0.175
-0.175
-0.175
-0.175
-0.175
-0.175
-0.175
-0.175
-0.175
-0.175
-0.175
-0.175
-0.175
-0.175
-0.175
-0.175
-0.175
-0.175
-0.175
-0.175
-0.175
-0.175
-0.175
-0.175
-0.175
-0.175
-0.175
-0.175
-0.175
-0.175
-0.175
-0.175
-0.175
-0.175
-0.175
-0.175
-0.175
-0.175
-0.175
-0.175
-0.175
-0.175
-0.175
-0.175
-0.175
-0.175
-0.175
-0.175
-0.175
-0.175
-0.175
-0.175
-0.175
-0.175
-0.175
-0.175
-0.175
-0.175
-0.175
-0.175
-0.175
-0.175
-0.175
-0.175
-0.175
-0.175
-0.175
-0.175
-0.175
-0.175
-0.175
-0.175
-0.175
-0.175
-0.175
-0.175
-0.175
-0.175
-0.175
-0.175
-0.175
-0.175
-0.175
-0.175
-0.175
-0.175
-0.175
-0.175
-0.175
-0.175
-0.175
-0.175
-0.175
-0.175
-0.175
-0.175
-0.175
-0.175
-0.175
-0.175
-0.175
-0.175
-0.175
-0.175
-0.175
-0.175
-0.175
-0.175
-0.175
-0.175
-0.175
-0.175
-0.175
-0.175
-0.175
-0.175
-0.175
-0.175
-0.175
-0.175
-0.175
-0.175
-0.175
-0.175
-0.175
-0.175
-0.175
-0.175
-0.175
-0.175
-0.175
-0.175
-0.175
-0.175
-0.175
-0.175
-0.175
-0.175
-0.175
-0.175
-0.175
-0.175
-0.175
-0.175
-0.175
-0.175
-0.175
-0.175
-0.175
-0.175
-0.175
-0.175
-0.175
-0.175
-0.175
-0.175
-0.175
-0.175
-0.175
-0.175
-0.175
-0.175
-0.175
-0.175
-0.175
-0.175
-0.175
-0.175
-0.175
-0.175
-0.175
-0.175
-0.175
-0.175
-0.175
-0.175
-0.175
-0.175
-0.175
-0.175
-0.175
-0.175
-0.175
-0.175
-0.175
-0.175
-0.175
-0.175
-0.175
-0.175
-0.175
-0.175
-0.175
-0.175
-0.175
-0.175
-0.175
-0.175
-0.175
-0.175
-0.175
-0.175
-0.175
-0.175
-0.175
-0.175
-0.175
-0.175
-0.175
-0.175
-0.175
-0.175
-0.175
-0.175
-0.175
-0.175
-0.175
-0.175
-0.175
-0.175
-0.175
-0.175
-0.175
-0.175
-0.175
-0.175
-0.175
-0.175
-0.175
-0.175
-0.175
-0.175
-0.175
-0.175
-0.175
-0.175
-0.175
-0.175
-0.175
-0.175
-0.175
-0.175
-0.175
-0.175
-0.175
-0.175
-0.175
-0.175
-0.175
-0.175
-0.175
-0.175
-0.175
-0.175
-0.175
-0.175
-0.175
-0.175
-0.175
-0.175
-0.175
-0.175
-0.175
-0.175
-0.175
-0.175
-0.175
-0.175
-0.175
-0.175
-0.175
-0.175
-0.175
-0.175
-0.175
-0.175
-0.175
-0.175
-0.175
-0.175
-0.175
-0.175
-0.175
-0.175
-0.175
-0.175
-0.175
-0.175
-0.175
-0.175
-0.175
-0.175
-0.175
-0.175
-0.175
-0.175
-0.175
-0.175
-0.175
-0.175
-0.175
-0.175
-0.175
-0.175
-0.175
-0.175
-0.175
-0.175
-0.175
-0.175
-0.175
-0.175
-0.175
-0.175
-0.175
-0.175
-0.175
-0.175
-0.175
-0.175
-0.175
-0.175
-0.175
-0.175
-0.175
-0.175
-0.175
-0.175
-0.175
-0.175
-0.175
-0.175
-0.175
-0.175
-0.175
-0.175
-0.175
-0.175
-0.175
-0.175
-0.175
-0.175
-0.175
-0.175
-0.175
-0.175
-0.175
-0.175
-0.175
-0.175
-0.175
-0.175
-0.175
-0.175
-0.175
-0.175
-0.175
-0.175
-0.175
-0.175
-0.175
-0.175
-0.175
-0.175
-0.175
-0.175
-0.175
-0.175
-0.175
-0.175
-0.175
-0.175
-0.175
-0.175
-0.175
-0.175
-0.175
-0.175
-0.175
-0.175
-0.175
-0.175
-0.175
-0.175
-0.175
-0.175
-0.175
-0.175
-0.175
-0.175
-0.175
-0.175
-0.175
-0.175
-0.175
-0.175
-0.175
-0.175
-0.175
-0.175
-0.175
-0.175
-0.175
-0.175
-0.175
-0.175
-0.175
-0.175
-0.175
-0.175
-0.175
-0.175
-0.175
-0.175
-0.175
-0.175
-0.175
-0.175
-0.175
-0.175
-0.175
-0.175
-0.175
-0.175
-0.175
-0.175
-0.175
-0.175
-0.175
-0.175
-0.175
-0.15
-0.125
-0.1
-0.075
-0.05
-0.025
0.0
0.025
0.05
0.075
0.125
0.15
0.175
0.2
0.225
0.25
0.275
0.3
0.325
0.35
0.375
0.425
0.45
0.475
0.5
0.525
0.55
0.575
0.6
0.625
0.65
0.7
0.65
0.625
0.6
0.575
0.55
0.525
0.5
0.475
0.45
0.425
0.375
0.35
0.325
0.3
0.275
0.25
0.225
0.2
0.175
0.15
0.125
0.075
0.05
0.025
0.0
-0.025
-0.05
-0.075
-0.1
-0.125
-0.15
-0.175
-0.2
-0.225
-0.25
-0.275
-0.25
-0.225
-0.2
-0.175
-0.175
-0.175
-0.175
-0.175
-0.175
-0.175
-0.175
-0.175
-0.175
-0.175
-0.175
-0.175
-0.175
-0.175
-0.175
-0.175
-0.175
-0.175
-0.175
-0.175
-0.175
-0.175
-0.175
-0.175
-0.175
-0.175
-0.175
-0.175
-0.175
-0.175
-0.175
-0.175
-0.175
-0.175
-0.175
-0.175
-0.175
-0.175
-0.175
-0.175
-0.175
-0.175
-0.175
-0.175
-0.175
-0.175
-0.175
-0.175
-0.175
-0.175
-0.175
-0.175
-0.175
-0.175
-0.175
-0.175
-0.175
-0.175
-0.175
-0.175
-0.175
-0.175
-0.175
-0.175
-0.175
-0.175
-0.175
-0.175
-0.175
-0.175
-0.175
-0.175
-0.175
-0.175
-0.175
-0.175
-0.175
-0.175
-0.175
-0.175
-0.175
-0.175
-0.175
-0.175
-0.175
-0.175
-0.175
-0.175
-0.175
-0.175
-0.175
-0.175
-0.175
-0.175
-0.175
-0.175
-0.175
-0.175
-0.175
-0.175
-0.175
-0.175
-0.175
-0.175
-0.175
-0.175
-0.175
-0.175
-0.175
-0.175
-0.175
-0.175
-0.175
-0.175
-0.175
-0.175
-0.175
-0.175
-0.175
-0.175
-0.175
-0.175
-0.175
-0.175
-0.175
-0.175
-0.175
-0.175
-0.175
-0.175
-0.175
-0.175
-0.175
-0.175
-0.175
-0.175
-0.175
-0.175
-0.175
-0.175
-0.175
-0.175
-0.175
-0.175
-0.175
-0.175
-0.175
-0.175
-0.175
-0.175
-0.175
-0.175
-0.175
-0.175
-0.175
-0.175
-0.175
-0.175
-0.175
-0.175
-0.175
-0.175
-0.175
-0.175
-0.175
-0.175
-0.175
-0.175
-0.175
-0.175
-0.175
-0.175
-0.175
-0.175
-0.175
-0.175
-0.175
-0.175
-0.175
-0.175
-0.175
-0.175
-0.175
-0.175
-0.175
-0.175
-0.175
-0.175
-0.175
-0.175
-0.175
-0.175
-0.175
-0.175
-0.175
-0.175
-0.175
-0.175
-0.175
-0.175
-0.175
-0.175
-0.175
-0.175
-0.175
-0.175
-0.175
-0.175
-0.175
-0.175
-0.175
-0.175
-0.175
-0.175
-0.175
-0.175
-0.175
-0.175
-0.175
-0.175
-0.175
-0.175
-0.175
-0.175
-0.175
-0.175
-0.175
-0.175
-0.175
-0.175
-0.175
-0.175
-0.175
-0.175
-0.175
-0.175
-0.175
-0.175
-0.175
-0.175
-0.175
-0.175
-0.175
-0.175
-0.175
-0.175
-0.175
-0.175
-0.175
-0.175
-0.175
-0.175
-0.175
-0.175
-0.175
-0.175
-0.175
-0.175
-0.175
-0.175
-0.175
-0.175
-0.175
-0.175
-0.175
-0.175
-0.175
-0.175
-0.175
-0.175
-0.175
-0.175
-0.175
-0.175
-0.175
-0.175
-0.175
-0.175
-0.175
-0.175
-0.175
-0.175
-0.175
-0.175
-0.175
-0.175
-0.175
-0.175
-0.175
-0.175
-0.175
-0.175
-0.175
-0.175
-0.175
-0.175
-0.175
-0.175
-0.175
-0.175
-0.175
-0.175
-0.175
-0.175
-0.175
-0.175
-0.175
-0.175
-0.175
-0.175
-0.175
-0.175
-0.175
-0.175
-0.175
-0.175
-0.175
-0.175
-0.175
-0.175
-0.175
-0.175
-0.175
-0.175
-0.175
-0.175
-0.175
-0.175
-0.175
-0.175
-0.175
-0.175
-0.175
-0.175
-0.175
-0.175
-0.175
-0.175
-0.175
-0.175
-0.175
-0.175
-0.175
-0.175
-0.175
-0.175
-0.175
-0.175
-0.175
-0.175
-0.175
-0.175
-0.175
-0.175
-0.175
-0.175
-0.175
-0.175
-0.175
-0.175
-0.175
-0.175
-0.175
-0.175
-0.175
-0.175
-0.175
-0.175
-0.175
-0.175
-0.175
-0.175
-0.175
-0.175
-0.175
-0.175
-0.175
-0.175
-0.175
-0.175
-0.175
-0.175
-0.175
-0.175
-0.175
-0.175
-0.175
-0.175
-0.175
-0.175
-0.175
-0.175
-0.175
-0.175
-0.175
-0.175
-0.175
-0.175
-0.175
-0.175
-0.175
-0.175
-0.175
-0.175
-0.175
-0.175
-0.175
-0.175
-0.175
-0.175
-0.175
-0.175
-0.175
-0.175
-0.175
-0.175
-0.175
-0.175
-0.175
-0.175
-0.175
-0.175
-0.175
-0.175
-0.175
-0.175
-0.175
-0.175
-0.175
-0.175
-0.175
-0.175
-0.175
-0.175
-0.175
-0.175
-0.175
-0.175
-0.175
-0.175
-0.175
-0.175
-0.175
-0.175
-0.175
-0.175
-0.175
-0.175
-0.175
-0.175
-0.175
-0.175
-0.175
-0.175
-0.175
-0.175
-0.175
-0.175
-0.175
-0.175
-0.175
-0.175
-0.175
-0.175
-0.175
-0.175
-0.175
-0.175
-0.15
-0.125
-0.1
-0.075
-0.05
-0.025
0.0
0.025
0.05
0.075
0.125
0.15
0.175
0.2
0.225
0.25
0.275
0.3
0.325
0.35
0.375
0.425
0.45
0.475
0.5
0.525
0.55
0.575
0.6
0.625
0.65
0.7
0.65
0.625
0.6
0.575
0.55
0.525
0.5
0.475
0.45
0.425
0.375
0.35
0.325
0.3
0.275
0.25
0.225
0.2
0.175
0.15
0.125
0.075
0.05
0.025
0.0
-0.025
-0.05
-0.075
-0.1
-0.125
-0.15
-0.175
-0.2
-0.225
-0.25
-0.275
-0.25
-0.225
-0.2
-0.175
-0.175
-0.175
-0.175
-0.175
-0.175
-0.175
-0.175
-0.175
-0.175
-0.175
-0.175
-0.175
-0.175
-0.175
-0.175
-0.175
-0.175
-0.175
-0.175
-0.175
-0.175
-0.175
-0.175
-0.175
-0.175
-0.175
-0.175
-0.175
-0.175
-0.175
-0.175
-0.175
-0.175
-0.175
-0.175
-0.175
-0.175
-0.175
-0.175
-0.175
-0.175
-0.175
-0.175
-0.175
-0.175
-0.175
-0.175
-0.175
-0.175
-0.175
-0.175
-0.175
-0.175
-0.175
-0.175
-0.175
-0.175
-0.175
-0.175
-0.175
-0.175
-0.175
-0.175
-0.175
-0.175
-0.175
-0.175
-0.175
-0.175
-0.175
-0.175
-0.175
-0.175
-0.175
-0.175
-0.175
-0.175
-0.175
-0.175
-0.175
-0.175
-0.175
-0.175
-0.175
-0.175
-0.175
-0.175
-0.175
-0.175
-0.175
-0.175
-0.175
-0.175
-0.175
-0.175
-0.175
-0.175
-0.175
-0.175
-0.175
-0.175
-0.175
-0.175
-0.175
-0.175
-0.175
-0.175
-0.175
-0.175
-0.175
-0.175
-0.175
-0.175
-0.175
-0.175
-0.175
-0.175
-0.175
-0.175
-0.175
-0.175
-0.175
-0.175
-0.175
-0.175
-0.175
-0.175
-0.175
-0.175
-0.175
-0.175
-0.175
-0.175
-0.175
-0.175
-0.175
-0.175
-0.175
-0.175
-0.175
-0.175
-0.175
-0.175
-0.175
-0.175
-0.175
-0.175
-0.175
-0.175
-0.175
-0.175
-0.175
-0.175
-0.175
-0.175
-0.175
-0.175
-0.175
-0.175
-0.175
-0.175
-0.175
-0.175
-0.175
-0.175
-0.175
-0.175
-0.175
-0.175
-0.175
-0.175
-0.175
-0.175
-0.175
-0.175
-0.175
-0.175
-0.175
-0.175
-0.175
-0.175
-0.175
-0.175
-0.175
-0.175
-0.175
-0.175
-0.175
-0.175
-0.175
-0.175
-0.175
-0.175
-0.175
-0.175
-0.175
-0.175
-0.175
-0.175
-0.175
-0.175
-0.175
-0.175
-0.175
-0.175
-0.175
-0.175
-0.175
-0.175
-0.175
-0.175
-0.175
-0.175
-0.175
-0.175
-0.175
-0.175
-0.175
-0.175
-0.175
-0.175
-0.175
-0.175
-0.175
-0.175
-0.175
-0.175
-0.175
-0.175
-0.175
-0.175
-0.175
-0.175
-0.175
-0.175
-0.175
-0.175
-0.175
-0.175
-0.175
-0.175
-0.175
-0.175
-0.175
-0.175
-0.175
-0.175
-0.175
-0.175
-0.175
-0.175
-0.175
-0.175
-0.175
-0.175
-0.175
-0.175
-0.175
-0.175
-0.175
-0.175
-0.175
-0.175
-0.175
-0.175
-0.175
-0.175
-0.175
-0.175
-0.175
-0.175
-0.175
-0.175
-0.175
-0.175
-0.175
-0.175
-0.175
-0.175
-0.175
-0.175
-0.175
-0.175
-0.175
-0.175
-0.175
-0.175
-0.175
-0.175
-0.175
-0.175
-0.175
-0.175
-0.175
-0.175
-0.175
-0.175
-0.175
-0.175
-0.175
-0.175
-0.175
-0.175
-0.175
-0.175
-0.175
-0.175
-0.175
-0.175
-0.175
-0.175
-0.175
-0.175
-0.175
-0.175
-0.175
-0.175
-0.175
-0.175
-0.175
-0.175
-0.175
-0.175
-0.175
-0.175
-0.175
-0.175
-0.175
-0.175
-0.175
-0.175
-0.175
-0.175
-0.175
-0.175
-0.175
-0.175
-0.175
-0.175
-0.175
-0.175
-0.175
-0.175
-0.175
-0.175
-0.175
-0.175
-0.175
-0.175
-0.175
-0.175
-0.175
-0.175
-0.175
-0.175
-0.175
-0.175
-0.175
-0.175
-0.175
-0.175
-0.175
-0.175
-0.175
-0.175
-0.175
-0.175
-0.175
-0.175
-0.175
-0.175
-0.175
-0.175
-0.175
-0.175
-0.175
-0.175
-0.175
-0.175
-0.175
-0.175
-0.175
-0.175
-0.175
-0.175
-0.175
-0.175
-0.175
-0.175
-0.175
-0.175
-0.175
-0.175
-0.175
-0.175
-0.175
-0.175
-0.175
-0.175
-0.175
-0.175
-0.175
-0.175
-0.175
-0.175
-0.175
-0.175
-0.175
-0.175
-0.175
-0.175
-0.175
-0.175
-0.175
-0.175
-0.175
-0.175
-0.175
-0.175
-0.175
-0.175
-0.175
-0.175
-0.175
-0.175
-0.175
-0.175
-0.175
-0.175
-0.175
-0.175
-0.175
-0.175
-0.175
-0.175
-0.175
-0.175
-0.175
-0.175
-0.175
-0.175
-0.175
-0.175
-0.175
-0.175
-0.175
-0.175
-0.175
-0.175
-0.175
-0.175
-0.175
-0.175
-0.175
-0.175
-0.175
-0.175
-0.175
-0.175
-0.175
-0.175
-0.175
-0.175
-0.175
-0.175
-0.175
-0.175
-0.175
-0.15
-0.125
-0.1
-0.075
-0.05
-0.025
0.0
0.025
0.05
0.075
0.125
0.15
0.175
0.2
0.225
0.25
0.275
0.3
0.325
0.35
0.375
0.425
0.45
0.475
0.5
0.525
0.55
0.575
0.6
0.625
0.65
0.7
0.65
0.625
0.6
0.575
0.55
0.525
0.5
0.475
0.45
0.425
0.375
0.35
0.325
0.3
0.275
0.25
0.225
0.2
0.175
0.15
0.125
0.075
0.05
0.025
0.0
-0.025
-0.05
-0.075
-0.1
-0.125
-0.15
-0.175
-0.2
-0.225
-0.25
-0.275
-0.25
-0.225
-0.2
-0.175
-0.175
-0.175
-0.175
-0.175
-0.175
-0.175
-0.175
-0.175
-0.175
-0.175
-0.175
-0.175
-0.175
-0.175
-0.175
-0.175
-0.175
-0.175
-0.175
-0.175
-0.175
-0.175
-0.175
-0.175
-0.175
-0.175
-0.175
-0.175
-0.175
-0.175
-0.175
-0.175
-0.175
-0.175
-0.175
-0.175
-0.175
-0.175
-0.175
-0.175
-0.175
-0.175
-0.175
-0.175
-0.175
-0.175
-0.175
-0.175
-0.175
-0.175
-0.175
-0.175
-0.175
-0.175
-0.175
-0.175
-0.175
-0.175
-0.175
-0.175
-0.175
-0.175
-0.175
-0.175
-0.175
-0.175
-0.175
-0.175
-0.175
-0.175
-0.175
-0.175
-0.175
-0.175
-0.175
-0.175
-0.175
-0.175
-0.175
-0.175
-0.175
-0.175
-0.175
-0.175
-0.175
-0.175
-0.175
-0.175
-0.175
-0.175
-0.175
-0.175
-0.175
-0.175
-0.175
-0.175
-0.175
-0.175
-0.175
-0.175
-0.175
-0.175
-0.175
-0.175
-0.175
-0.175
-0.175
-0.175
-0.175
-0.175
-0.175
-0.175
-0.175
-0.175
-0.175
-0.175
-0.175
-0.175
-0.175
-0.175
-0.175
-0.175
-0.175
-0.175
-0.175
-0.175
-0.175
-0.175
-0.175
-0.175
-0.175
-0.175
-0.175
-0.175
-0.175
-0.175
-0.175
-0.175
-0.175
-0.175
-0.175
-0.175
-0.175
-0.175
-0.175
-0.175
-0.175
-0.175
-0.175
-0.175
-0.175
-0.175
-0.175
-0.175
-0.175
-0.175
-0.175
-0.175
-0.175
-0.175
-0.175
-0.175
-0.175
-0.175
-0.175
-0.175
-0.175
-0.175
-0.175
-0.175
-0.175
-0.175
-0.175
-0.175
-0.175
-0.175
-0.175
-0.175
-0.175
-0.175
-0.175
-0.175
-0.175
-0.175
-0.175
-0.175
-0.175
-0.175
-0.175
-0.175
-0.175
-0.175
-0.175
-0.175
-0.175
-0.175
-0.175
-0.175
-0.175
-0.175
-0.175
-0.175
-0.175
-0.175
-0.175
-0.175
-0.175
-0.175
-0.175
-0.175
-0.175
-0.175
-0.175
-0.175
-0.175
-0.175
-0.175
-0.175
-0.175
-0.175
-0.175
-0.175
-0.175
-0.175
-0.175
-0.175
-0.175
-0.175
-0.175
-0.175
-0.175
-0.175
-0.175
-0.175
-0.175
-0.175
-0.175
-0.175
-0.175
-0.175
-0.175
-0.175
-0.175
-0.175
-0.175
-0.175
-0.175
-0.175
-0.175
-0.175
-0.175
-0.175
-0.175
-0.175
-0.175
-0.175
-0.175
-0.175
-0.175
-0.175
-0.175
-0.175
-0.175
-0.175
-0.175
-0.175
-0.175
-0.175
-0.175
-0.175
-0.175
-0.175
-0.175
-0.175
-0.175
-0.175
-0.175
-0.175
-0.175
-0.175
-0.175
-0.175
-0.175
-0.175
-0.175
-0.175
-0.175
-0.175
-0.175
-0.175
-0.175
-0.175
-0.175
-0.175
-0.175
-0.175
-0.175
-0.175
-0.175
-0.175
-0.175
-0.175
-0.175
-0.175
-0.175
-0.175
-0.175
-0.175
-0.175
-0.175
-0.175
-0.175
-0.175
-0.175
-0.175
-0.175
-0.175
-0.175
-0.175
-0.175
-0.175
-0.175
-0.175
-0.175
-0.175
-0.175
-0.175
-0.175
-0.175
-0.175
-0.175
-0.175
-0.175
-0.175
-0.175
-0.175
-0.175
-0.175
-0.175
-0.175
-0.175
-0.175
-0.175
-0.175
-0.175
-0.175
-0.175
-0.175
-0.175
-0.175
-0.175
-0.175
-0.175
-0.175
-0.175
-0.175
-0.175
-0.175
-0.175
-0.175
-0.175
-0.175
-0.175
-0.175
-0.175
-0.175
-0.175
-0.175
-0.175
-0.175
-0.175
-0.175
-0.175
-0.175
-0.175
-0.175
-0.175
-0.175
-0.175
-0.175
-0.175
-0.175
-0.175
-0.175
-0.175
-0.175
-0.175
-0.175
-0.175
-0.175
-0.175
-0.175
-0.175
-0.175
-0.175
-0.175
-0.175
-0.175
-0.175
-0.175
-0.175
-0.175
-0.175
-0.175
-0.175
-0.175
-0.175
-0.175
-0.175
-0.175
-0.175
-0.175
-0.175
-0.175
-0.175
-0.175
-0.175
-0.175
-0.175
-0.175
-0.175
-0.175
-0.175
-0.175
-0.175
-0.175
-0.175
-0.175
-0.175
-0.175
-0.175
-0.175
-0.175
-0.175
-0.175
-0.175
-0.175
-0.175
-0.175
-0.175
-0.175
-0.175
-0.175
-0.175
-0.175
-0.175
-0.175
-0.175
-0.175
-0.175
-0.175
-0.175
-0.175
-0.175
-0.175
-0.175
-0.175
-0.175
-0.175
-0.175
-0.175
-0.175
-0.175
-0.175
-0.175
-0.175
-0.175
-0.175
-0.15
-0.125
-0.1
-0.075
-0.05
-0.025
0.0
0.025
0.05
0.075
0.125
0.15
0.175
0.2
0.225
0.25
0.275
0.3
0.325
0.35
0.375
0.425
0.45
0.475
0.5
0.525
0.55
0.575
0.6
0.625
0.65
0.7
0.65
0.625
0.6
0.575
0.55
0.525
0.5
0.475
0.45
0.425
0.375
0.35
0.325
0.3
0.275
0.25
0.225
0.2
0.175
0.15
0.125
0.075
0.05
0.025
0.0
-0.025
-0.05
-0.075
-0.1
-0.125
-0.15
-0.175
-0.2
-0.225
-0.25
-0.275
-0.25
-0.225
-0.2
-0.175
-0.175
-0.175
-0.175
-0.175
-0.175
-0.175
-0.175
-0.175
-0.175
-0.175
-0.175
-0.175
-0.175
-0.175
-0.175
-0.175
-0.175
-0.175
-0.175
-0.175
-0.175
-0.175
-0.175
-0.175
-0.175
-0.175
-0.175
-0.175
-0.175
-0.175
-0.175
-0.175
-0.175
-0.175
-0.175
-0.175
-0.175
-0.175
-0.175
-0.175
-0.175
-0.175
-0.175
-0.175
-0.175
-0.175
-0.175
-0.175
-0.175
-0.175
-0.175
-0.175
-0.175
-0.175
-0.175
-0.175
-0.175
-0.175
-0.175
-0.175
-0.175
-0.175
-0.175
-0.175
-0.175
-0.175
-0.175
-0.175
-0.175
-0.175
-0.175
-0.175
-0.175
-0.175
-0.175
-0.175
-0.175
-0.175
-0.175
-0.175
-0.175
-0.175
-0.175
-0.175
-0.175
-0.175
-0.175
-0.175
-0.175
-0.175
-0.175
-0.175
-0.175
-0.175
-0.175
-0.175
-0.175
-0.175
-0.175
-0.175
-0.175
-0.175
-0.175
-0.175
-0.175
-0.175
-0.175
-0.175
-0.175
-0.175
-0.175
-0.175
-0.175
-0.175
-0.175
-0.175
-0.175
-0.175
-0.175
-0.175
-0.175
-0.175
-0.175
-0.175
-0.175
-0.175
-0.175
-0.175
-0.175
-0.175
-0.175
-0.175
-0.175
-0.175
-0.175
-0.175
-0.175
-0.175
-0.175
-0.175
-0.175
-0.175
-0.175
-0.175
-0.175
-0.175
-0.175
-0.175
-0.175
-0.175
-0.175
-0.175
-0.175
-0.175
-0.175
-0.175
-0.175
-0.175
-0.175
-0.175
-0.175
-0.175
-0.175
-0.175
-0.175
-0.175
-0.175
-0.175
-0.175
-0.175
-0.175
-0.175
-0.175
-0.175
-0.175
-0.175
-0.175
-0.175
-0.175
-0.175
-0.175
-0.175
-0.175
-0.175
-0.175
-0.175
-0.175
-0.175
-0.175
-0.175
-0.175
-0.175
-0.175
-0.175
-0.175
-0.175
-0.175
-0.175
-0.175
-0.175
-0.175
-0.175
-0.175
-0.175
-0.175
-0.175
-0.175
-0.175
-0.175
-0.175
-0.175
-0.175
-0.175
-0.175
-0.175
-0.175
-0.175
-0.175
-0.175
-0.175
-0.175
-0.175
-0.175
-0.175
-0.175
-0.175
-0.175
-0.175
-0.175
-0.175
-0.175
-0.175
-0.175
-0.175
-0.175
-0.175
-0.175
-0.175
-0.175
-0.175
-0.175
-0.175
-0.175
-0.175
-0.175
-0.175
-0.175
-0.175
-0.175
-0.175
-0.175
-0.175
-0.175
-0.175
-0.175
-0.175
-0.175
-0.175
-0.175
-0.175
-0.175
-0.175
-0.175
-0.175
-0.175
-0.175
-0.175
-0.175
-0.175
-0.175
-0.175
-0.175
-0.175
-0.175
-0.175
-0.175
-0.175
-0.175
-0.175
-0.175
-0.175
-0.175
-0.175
-0.175
-0.175
-0.175
-0.175
-0.175
-0.175
-0.175
-0.175
-0.175
-0.175
-0.175
-0.175
-0.175
-0.175
-0.175
-0.175
-0.175
-0.175
-0.175
-0.175
-0.175
-0.175
-0.175
-0.175
-0.175
-0.175
-0.175
-0.175
-0.175
-0.175
-0.175
-0.175
-0.175
-0.175
-0.175
-0.175
-0.175
-0.175
-0.175
-0.175
-0.175
-0.175
-0.175
-0.175
-0.175
-0.175
-0.175
-0.175
-0.175
-0.175
-0.175
-0.175
-0.175
-0.175
-0.175
-0.175
-0.175
-0.175
-0.175
-0.175
-0.175
-0.175
-0.175
-0.175
-0.175
-0.175
-0.175
-0.175
-0.175
-0.175
-0.175
-0.175
-0.175
-0.175
-0.175
-0.175
-0.175
-0.175
-0.175
-0.175
-0.175
-0.175
-0.175
-0.175
-0.175
-0.175
-0.175
-0.175
-0.175
-0.175
-0.175
-0.175
-0.175
-0.175
-0.175
-0.175
-0.175
-0.175
-0.175
-0.175
-0.175
-0.175
-0.175
-0.175
-0.175
-0.175
-0.175
-0.175
-0.175
-0.175
-0.175
-0.175
-0.175
-0.175
-0.175
-0.175
-0.175
-0.175
-0.175
-0.175
-0.175
-0.175
-0.175
-0.175
-0.175
-0.175
-0.175
-0.175
-0.175
-0.175
-0.175
-0.175
-0.175
-0.175
-0.175
-0.175
-0.175
-0.175
-0.175
-0.175
-0.175
-0.175
-0.175
-0.175
-0.175
-0.175
-0.175
-0.175
-0.175
-0.175
-0.175
-0.175
-0.175
-0.175
-0.175
-0.175
-0.175
-0.175
-0.175
-0.175
-0.175
-0.175
-0.175
-0.175
-0.175
-0.175
-0.175
-0.175
-0.175
-0.175
-0.175
-0.175
-0.175
-0.175
-0.175
-0.175
-0.175
-0.175
-0.175
-0.175
-0.175
-0.175
-0.175
-0.175
-0.175
-0.15
-0.125
-0.1
-0.075
-0.05
-0.025
0.0
0.025
0.05
0.075
0.125
0.15
0.175
0.2
0.225
0.25
0.275
0.3
0.325
0.35
0.375
0.425
0.45
0.475
0.5
0.525
0.55
0.575
0.6
0.625
0.65
0.7
0.65
0.625
0.6
0.575
0.55
0.525
0.5
0.475
0.45
0.425
0.375
0.35
0.325
0.3
0.275
0.25
0.225
0.2
0.175
0.15
0.125
0.075
0.05
0.025
0.0
-0.025
-0.05
-0.075
-0.1
-0.125
-0.15
-0.175
-0.2
-0.225
-0.25
-0.275
-0.25
-0.225
-0.2
-0.175
-0.175
-0.175
-0.175
-0.175
-0.175
-0.175
-0.175
-0.175
-0.175
-0.175
-0.175
-0.175
-0.175
-0.175
-0.175
-0.175
-0.175
-0.175
-0.175
-0.175
-0.175
-0.175
-0.175
-0.175
-0.175
-0.175
-0.175
-0.175
-0.175
-0.175
-0.175
-0.175
-0.175
-0.175
-0.175
-0.175
-0.175
-0.175
-0.175
-0.175
-0.175
-0.175
-0.175
-0.175
-0.175
-0.175
-0.175
-0.175
-0.175
-0.175
-0.175
-0.175
-0.175
-0.175
-0.175
-0.175
-0.175
-0.175
-0.175
-0.175
-0.175
-0.175
-0.175
-0.175
-0.175
-0.175
-0.175
-0.175
-0.175
-0.175
-0.175
-0.175
-0.175
-0.175
-0.175
-0.175
-0.175
-0.175
-0.175
-0.175
-0.175
-0.175
-0.175
-0.175
-0.175
-0.175
-0.175
-0.175
-0.175
-0.175
-0.175
-0.175
-0.175
-0.175
-0.175
-0.175
-0.175
-0.175
-0.175
-0.175
-0.175
-0.175
-0.175
-0.175
-0.175
-0.175
-0.175
-0.175
-0.175
-0.175
-0.175
-0.175
-0.175
-0.175
-0.175
-0.175
-0.175
-0.175
-0.175
-0.175
-0.175
-0.175
-0.175
-0.175
-0.175
-0.175
-0.175
-0.175
-0.175
-0.175
-0.175
-0.175
-0.175
-0.175
-0.175
-0.175
-0.175
-0.175
-0.175
-0.175
-0.175
-0.175
-0.175
-0.175
-0.175
-0.175
-0.175
-0.175
-0.175
-0.175
-0.175
-0.175
-0.175
-0.175
-0.175
-0.175
-0.175
-0.175
-0.175
-0.175
-0.175
-0.175
-0.175
-0.175
-0.175
-0.175
-0.175
-0.175
-0.175
-0.175
-0.175
-0.175
-0.175
-0.175
-0.175
-0.175
-0.175
-0.175
-0.175
-0.175
-0.175
-0.175
-0.175
-0.175
-0.175
-0.175
-0.175
-0.175
-0.175
-0.175
-0.175
-0.175
-0.175
-0.175
-0.175
-0.175
-0.175
-0.175
-0.175
-0.175
-0.175
-0.175
-0.175
-0.175
-0.175
-0.175
-0.175
-0.175
-0.175
-0.175
-0.175
-0.175
-0.175
-0.175
-0.175
-0.175
-0.175
-0.175
-0.175
-0.175
-0.175
-0.175
-0.175
-0.175
-0.175
-0.175
-0.175
-0.175
-0.175
-0.175
-0.175
-0.175
-0.175
-0.175
-0.175
-0.175
-0.175
-0.175
-0.175
-0.175
-0.175
-0.175
-0.175
-0.175
-0.175
-0.175
-0.175
-0.175
-0.175
-0.175
-0.175
-0.175
-0.175
-0.175
-0.175
-0.175
-0.175
-0.175
-0.175
-0.175
-0.175
-0.175
-0.175
-0.175
-0.175
-0.175
-0.175
-0.175
-0.175
-0.175
-0.175
-0.175
-0.175
-0.175
-0.175
-0.175
-0.175
-0.175
-0.175
-0.175
-0.175
-0.175
-0.175
-0.175
-0.175
-0.175
-0.175
-0.175
-0.175
-0.175
-0.175
-0.175
-0.175
-0.175
-0.175
-0.175
-0.175
-0.175
-0.175
-0.175
-0.175
-0.175
-0.175
-0.175
-0.175
-0.175
-0.175
-0.175
-0.175
-0.175
-0.175
-0.175
-0.175
-0.175
-0.175
-0.175
-0.175
-0.175
-0.175
-0.175
-0.175
-0.175
-0.175
-0.175
-0.175
-0.175
-0.175
-0.175
-0.175
-0.175
-0.175
-0.175
-0.175
-0.175
-0.175
-0.175
-0.175
-0.175
-0.175
-0.175
-0.175
-0.175
-0.175
-0.175
-0.175
-0.175
-0.175
-0.175
-0.175
-0.175
-0.175
-0.175
-0.175
-0.175
-0.175
-0.175
-0.175
-0.175
-0.175
-0.175
-0.175
-0.175
-0.175
-0.175
-0.175
-0.175
-0.175
-0.175
-0.175
-0.175
-0.175
-0.175
-0.175
-0.175
-0.175
-0.175
-0.175
-0.175
-0.175
-0.175
-0.175
-0.175
-0.175
-0.175
-0.175
-0.175
-0.175
-0.175
-0.175
-0.175
-0.175
-0.175
-0.175
-0.175
-0.175
-0.175
-0.175
-0.175
-0.175
-0.175
-0.175
-0.175
-0.175
-0.175
-0.175
-0.175
-0.175
-0.175
-0.175
-0.175
-0.175
-0.175
-0.175
-0.175
-0.175
-0.175
-0.175
-0.175
-0.175
-0.175
-0.175
-0.175
-0.175
-0.175
-0.175
-0.175
-0.175
-0.175
-0.175
-0.175
-0.175
-0.175
-0.175
-0.175
-0.175
-0.175
-0.175
-0.175
-0.175
-0.175
-0.175
-0.175
-0.175
-0.175
-0.175
-0.175
-0.175
-0.175
-0.175
-0.175
-0.175
-0.175
-0.175
-0.175
-0.175
-0.175
-0.175
-0.175
-0.175
-0.175
-0.175
-0.175
-0.175
-0.175
-0.175
-0.175
-0.175
-0.175
-0.15
-0.125
-0.1
-0.075
-0.05
-0.025
0.0
0.025
0.05
0.075
0.125
0.15
0.175
0.2
0.225
0.25
0.275
0.3
0.325
0.35
0.375
0.425
0.45
0.475
0.5
0.525
0.55
0.575
0.6
0.625
0.65
0.7
0.65
0.625
0.6
0.575
0.55
0.525
0.5
0.475
0.45
0.425
0.375
0.35
0.325
0.3
0.275
0.25
0.225
0.2
0.175
0.15
0.125
0.075
0.05
0.025
0.0
-0.025
-0.05
-0.075
-0.1
-0.125
-0.15
-0.175
-0.2
-0.225
-0.25
-0.275
-0.25
-0.225
-0.2
-0.175
-0.175
-0.175
-0.175
-0.175
-0.175
-0.175
-0.175
-0.175
-0.175
-0.175
-0.175
-0.175
-0.175
-0.175
-0.175
-0.175
-0.175
-0.175
-0.175
-0.175
-0.175
-0.175
-0.175
-0.175
-0.175
-0.175
-0.175
-0.175
-0.175
-0.175
-0.175
-0.175
-0.175
-0.175
-0.175
-0.175
-0.175
-0.175
-0.175
-0.175
-0.175
-0.175
-0.175
-0.175
-0.175
-0.175
-0.175
-0.175
-0.175
-0.175
-0.175
-0.175
-0.175
-0.175
-0.175
-0.175
-0.175
-0.175
-0.175
-0.175
-0.175
-0.175
-0.175
-0.175
-0.175
-0.175
-0.175
-0.175
-0.175
-0.175
-0.175
-0.175
-0.175
-0.175
-0.175
-0.175
-0.175
-0.175
-0.175
-0.175
-0.175
-0.175
-0.175
-0.175
-0.175
-0.175
-0.175
-0.175
-0.175
-0.175
-0.175
-0.175
-0.175
-0.175
-0.175
-0.175
-0.175
-0.175
-0.175
-0.175
-0.175
-0.175
-0.175
-0.175
-0.175
-0.175
-0.175
-0.175
-0.175
-0.175
-0.175
-0.175
-0.175
-0.175
-0.175
-0.175
-0.175
-0.175
-0.175
-0.175
-0.175
-0.175
-0.175
-0.175
-0.175
-0.175
-0.175
-0.175
-0.175
-0.175
-0.175
-0.175
-0.175
-0.175
-0.175
-0.175
-0.175
-0.175
-0.175
-0.175
-0.175
-0.175
-0.175
-0.175
-0.175
-0.175
-0.175
-0.175
-0.175
-0.175
-0.175
-0.175
-0.175
-0.175
-0.175
-0.175
-0.175
-0.175
-0.175
-0.175
-0.175
-0.175
-0.175
-0.175
-0.175
-0.175
-0.175
-0.175
-0.175
-0.175
-0.175
-0.175
-0.175
-0.175
-0.175
-0.175
-0.175
-0.175
-0.175
-0.175
-0.175
-0.175
-0.175
-0.175
-0.175
-0.175
-0.175
-0.175
-0.175
-0.175
-0.175
-0.175
-0.175
-0.175
-0.175
-0.175
-0.175
-0.175
-0.175
-0.175
-0.175
-0.175
-0.175
-0.175
-0.175
-0.175
-0.175
-0.175
-0.175
-0.175
-0.175
-0.175
-0.175
-0.175
-0.175
-0.175
-0.175
-0.175
-0.175
-0.175
-0.175
-0.175
-0.175
-0.175
-0.175
-0.175
-0.175
-0.175
-0.175
-0.175
-0.175
-0.175
-0.175
-0.175
-0.175
-0.175
-0.175
-0.175
-0.175
-0.175
-0.175
-0.175
-0.175
-0.175
-0.175
-0.175
-0.175
-0.175
-0.175
-0.175
-0.175
-0.175
-0.175
-0.175
-0.175
-0.175
-0.175
-0.175
-0.175
-0.175
-0.175
-0.175
-0.175
-0.175
-0.175
-0.175
-0.175
-0.175
-0.175
-0.175
-0.175
-0.175
-0.175
-0.175
-0.175
-0.175
-0.175
-0.175
-0.175
-0.175
-0.175
-0.175
-0.175
-0.175
-0.175
-0.175
-0.175
-0.175
-0.175
-0.175
-0.175
-0.175
-0.175
-0.175
-0.175
-0.175
-0.175
-0.175
-0.175
-0.175
-0.175
-0.175
-0.175
-0.175
-0.175
-0.175
-0.175
-0.175
-0.175
-0.175
-0.175
-0.175
-0.175
-0.175
-0.175
-0.175
-0.175
-0.175
-0.175
-0.175
-0.175
-0.175
-0.175
-0.175
-0.175
-0.175
-0.175
-0.175
-0.175
-0.175
-0.175
-0.175
-0.175
-0.175
-0.175
-0.175
-0.175
-0.175
-0.175
-0.175
-0.175
-0.175
-0.175
-0.175
-0.175
-0.175
-0.175
-0.175
-0.175
-0.175
-0.175
-0.175
-0.175
-0.175
-0.175
-0.175
-0.175
-0.175
-0.175
-0.175
-0.175
-0.175
-0.175
-0.175
-0.175
-0.175
-0.175
-0.175
-0.175
-0.175
-0.175
-0.175
-0.175
-0.175
-0.175
-0.175
-0.175
-0.175
-0.175
-0.175
-0.175
-0.175
-0.175
-0.175
-0.175
-0.175
-0.175
-0.175
-0.175
-0.175
-0.175
-0.175
-0.175
-0.175
-0.175
-0.175
-0.175
-0.175
-0.175
-0.175
-0.175
-0.175
-0.175
-0.175
-0.175
-0.175
-0.175
-0.175
-0.175
-0.175
-0.175
-0.175
-0.175
-0.175
-0.175
-0.175
-0.175
-0.175
-0.175
-0.175
-0.175
-0.175
-0.175
-0.175
-0.175
-0.175
-0.175
-0.175
-0.175
-0.175
-0.175
-0.175
-0.175
-0.175
-0.175
-0.175
-0.175
-0.175
-0.175
-0.175
-0.175
-0.175
-0.175
-0.175
-0.175
-0.175
-0.175
-0.175
-0.175
-0.175
-0.175
-0.175
-0.175
-0.175
-0.175
-0.175
-0.175
-0.175
-0.175
-0.175
-0.175
-0.175
-0.175
-0.175
-0.175
-0.175
-0.175
-0.175
-0.15
-0.125
-0.1
-0.075
-0.05
-0.025
0.0
0.025
0.05
0.075
0.125
0.15
0.175
0.2
0.225
0.25
0.275
0.3
0.325
0.35
0.375
0.425
0.45
0.475
0.5
0.525
0.55
0.575
0.6
0.625
0.65
0.7
0.65
0.625
0.6
0.575
0.55
0.525
0.5
0.475
0.45
0.425
0.375
0.35
0.325
0.3
0.275
0.25
0.225
0.2
0.175
0.15
0.125
0.075
0.05
0.025
0.0
-0.025
-0.05
-0.075
-0.1
-0.125
-0.15
-0.175
-0.2
-0.225
-0.25
-0.275
-0.25
-0.225
-0.2
-0.175
-0.175
-0.175
-0.175
-0.175
-0.175
-0.175
-0.175
-0.175
-0.175
-0.175
-0.175
-0.175
-0.175
-0.175
-0.175
-0.175
-0.175
-0.175
-0.175
-0.175
-0.175
-0.175
-0.175
-0.175
-0.175
-0.175
-0.175
-0.175
-0.175
-0.175
-0.175
-0.175
-0.175
-0.175
-0.175
-0.175
-0.175
-0.175
-0.175
-0.175
-0.175
-0.175
-0.175
-0.175
-0.175
-0.175
-0.175
-0.175
-0.175
-0.175
-0.175
-0.175
-0.175
-0.175
-0.175
-0.175
-0.175
-0.175
-0.175
-0.175
-0.175
-0.175
-0.175
-0.175
-0.175
-0.175
-0.175
-0.175
-0.175
-0.175
-0.175
-0.175
-0.175
-0.175
-0.175
-0.175
-0.175
-0.175
-0.175
-0.175
-0.175
-0.175
-0.175
-0.175
-0.175
-0.175
-0.175
-0.175
-0.175
-0.175
-0.175
-0.175
-0.175
-0.175
-0.175
-0.175
-0.175
-0.175
-0.175
-0.175
-0.175
-0.175
-0.175
-0.175
-0.175
-0.175
-0.175
-0.175
-0.175
-0.175
-0.175
-0.175
-0.175
-0.175
-0.175
-0.175
-0.175
-0.175
-0.175
-0.175
-0.175
-0.175
-0.175
-0.175
-0.175
-0.175
-0.175
-0.175
-0.175
-0.175
-0.175
-0.175
-0.175
-0.175
-0.175
-0.175
-0.175
-0.175
-0.175
-0.175
-0.175
-0.175
-0.175
-0.175
-0.175
-0.175
-0.175
-0.175
-0.175
-0.175
-0.175
-0.175
-0.175
-0.175
-0.175
-0.175
-0.175
-0.175
-0.175
-0.175
-0.175
-0.175
-0.175
-0.175
-0.175
-0.175
-0.175
-0.175
-0.175
-0.175
-0.175
-0.175
-0.175
-0.175
-0.175
-0.175
-0.175
-0.175
-0.175
-0.175
-0.175
-0.175
-0.175
-0.175
-0.175
-0.175
-0.175
-0.175
-0.175
-0.175
-0.175
-0.175
-0.175
-0.175
-0.175
-0.175
-0.175
-0.175
-0.175
-0.175
-0.175
-0.175
-0.175
-0.175
-0.175
-0.175
-0.175
-0.175
-0.175
-0.175
-0.175
-0.175
-0.175
-0.175
-0.175
-0.175
-0.175
-0.175
-0.175
-0.175
-0.175
-0.175
-0.175
-0.175
-0.175
-0.175
-0.175
-0.175
-0.175
-0.175
-0.175
-0.175
-0.175
-0.175
-0.175
-0.175
-0.175
-0.175
-0.175
-0.175
-0.175
-0.175
-0.175
-0.175
-0.175
-0.175
-0.175
-0.175
-0.175
-0.175
-0.175
-0.175
-0.175
-0.175
-0.175
-0.175
-0.175
-0.175
-0.175
-0.175
-0.175
-0.175
-0.175
-0.175
-0.175
-0.175
-0.175
-0.175
-0.175
-0.175
-0.175
-0.175
-0.175
-0.175
-0.175
-0.175
-0.175
-0.175
-0.175
-0.175
-0.175
-0.175
-0.175
-0.175
-0.175
-0.175
-0.175
-0.175
-0.175
-0.175
-0.175
-0.175
-0.175
-0.175
-0.175
-0.175
-0.175
-0.175
-0.175
-0.175
-0.175
-0.175
-0.175
-0.175
-0.175
-0.175
-0.175
-0.175
-0.175
-0.175
-0.175
-0.175
-0.175
-0.175
-0.175
-0.175
-0.175
-0.175
-0.175
-0.175
-0.175
-0.175
-0.175
-0.175
-0.175
-0.175
-0.175
-0.175
-0.175
-0.175
-0.175
-0.175
-0.175
-0.175
-0.175
-0.175
-0.175
-0.175
-0.175
-0.175
-0.175
-0.175
-0.175
-0.175
-0.175
-0.175
-0.175
-0.175
-0.175
-0.175
-0.175
-0.175
-0.175
-0.175
-0.175
-0.175
-0.175
-0.175
-0.175
-0.175
-0.175
-0.175
-0.175
-0.175
-0.175
-0.175
-0.175
-0.175
-0.175
-0.175
-0.175
-0.175
-0.175
-0.175
-0.175
-0.175
-0.175
-0.175
-0.175
-0.175
-0.175
-0.175
-0.175
-0.175
-0.175
-0.175
-0.175
-0.175
-0.175
-0.175
-0.175
-0.175
-0.175
-0.175
-0.175
-0.175
-0.175
-0.175
-0.175
-0.175
-0.175
-0.175
-0.175
-0.175
-0.175
-0.175
-0.175
-0.175
-0.175
-0.175
-0.175
-0.175
-0.175
-0.175
-0.175
-0.175
-0.175
-0.175
-0.175
-0.175
-0.175
-0.175
-0.175
-0.175
-0.175
-0.175
-0.175
-0.175
-0.175
-0.175
-0.175
-0.175
-0.175
-0.175
-0.175
-0.175
-0.175
-0.175
-0.175
-0.175
-0.175
-0.175
-0.175
-0.175
-0.175
-0.175
-0.175
-0.175
-0.175
-0.175
-0.175
-0.175
-0.175
-0.175
-0.175
-0.175
-0.175
-0.175
-0.175
-0.175
-0.175
-0.175
-0.175
-0.175
-0.175
-0.175
-0.175
-0.175
-0.15
-0.125
-0.1
-0.075
-0.05
-0.025
0.0
0.025
0.05
0.075
0.125
0.15
0.175
0.2
0.225
0.25
0.275
0.3
0.325
0.35
0.375
0.425
0.45
0.475
0.5
0.525
0.55
0.575
0.6
0.625
0.65
0.7
0.65
0.625
0.6
0.575
0.55
0.525
0.5
0.475
0.45
0.425
0.375
0.35
0.325
0.3
0.275
0.25
0.225
0.2
0.175
0.15
0.125
0.075
0.05
0.025
0.0
-0.025
-0.05
-0.075
-0.1
-0.125
-0.15
-0.175
-0.2
-0.225
-0.25
-0.275
-0.25
-0.225
-0.2
-0.175
-0.175
-0.175
-0.175
-0.175
-0.175
-0.175
-0.175
-0.175
-0.175
-0.175
-0.175
-0.175
-0.175
-0.175
-0.175
-0.175
-0.175
-0.175
-0.175
-0.175
-0.175
-0.175
-0.175
-0.175
-0.175
-0.175
-0.175
-0.175
-0.175
-0.175
-0.175
-0.175
-0.175
-0.175
-0.175
-0.175
-0.175
-0.175
-0.175
-0.175
-0.175
-0.175
-0.175
-0.175
-0.175
-0.175
-0.175
-0.175
-0.175
-0.175
-0.175
-0.175
-0.175
-0.175
-0.175
-0.175
-0.175
-0.175
-0.175
-0.175
-0.175
-0.175
-0.175
-0.175
-0.175
-0.175
-0.175
-0.175
-0.175
-0.175
-0.175
-0.175
-0.175
-0.175
-0.175
-0.175
-0.175
-0.175
-0.175
-0.175
-0.175
-0.175
-0.175
-0.175
-0.175
-0.175
-0.175
-0.175
-0.175
-0.175
-0.175
-0.175
-0.175
-0.175
-0.175
-0.175
-0.175
-0.175
-0.175
-0.175
-0.175
-0.175
-0.175
-0.175
-0.175
-0.175
-0.175
-0.175
-0.175
-0.175
-0.175
-0.175
-0.175
-0.175
-0.175
-0.175
-0.175
-0.175
-0.175
-0.175
-0.175
-0.175
-0.175
-0.175
-0.175
-0.175
-0.175
-0.175
-0.175
-0.175
-0.175
-0.175
-0.175
-0.175
-0.175
-0.175
-0.175
-0.175
-0.175
-0.175
-0.175
-0.175
-0.175
-0.175
-0.175
-0.175
-0.175
-0.175
-0.175
-0.175
-0.175
-0.175
-0.175
-0.175
-0.175
-0.175
-0.175
-0.175
-0.175
-0.175
-0.175
-0.175
-0.175
-0.175
-0.175
-0.175
-0.175
-0.175
-0.175
-0.175
-0.175
-0.175
-0.175
-0.175
-0.175
-0.175
-0.175
-0.175
-0.175
-0.175
-0.175
-0.175
-0.175
-0.175
-0.175
-0.175
-0.175
-0.175
-0.175
-0.175
-0.175
-0.175
-0.175
-0.175
-0.175
-0.175
-0.175
-0.175
-0.175
-0.175
-0.175
-0.175
-0.175
-0.175
-0.175
-0.175
-0.175
-0.175
-0.175
-0.175
-0.175
-0.175
-0.175
-0.175
-0.175
-0.175
-0.175
-0.175
-0.175
-0.175
-0.175
-0.175
-0.175
-0.175
-0.175
-0.175
-0.175
-0.175
-0.175
-0.175
-0.175
-0.175
-0.175
-0.175
-0.175
-0.175
-0.175
-0.175
-0.175
-0.175
-0.175
-0.175
-0.175
-0.175
-0.175
-0.175
-0.175
-0.175
-0.175
-0.175
-0.175
-0.175
-0.175
-0.175
-0.175
-0.175
-0.175
-0.175
-0.175
-0.175
-0.175
-0.175
-0.175
-0.175
-0.175
-0.175
-0.175
-0.175
-0.175
-0.175
-0.175
-0.175
-0.175
-0.175
-0.175
-0.175
-0.175
-0.175
-0.175
-0.175
-0.175
-0.175
-0.175
-0.175
-0.175
-0.175
-0.175
-0.175
-0.175
-0.175
-0.175
-0.175
-0.175
-0.175
-0.175
-0.175
-0.175
-0.175
-0.175
-0.175
-0.175
-0.175
-0.175
-0.175
-0.175
-0.175
-0.175
-0.175
-0.175
-0.175
-0.175
-0.175
-0.175
-0.175
-0.175
-0.175
-0.175
-0.175
-0.175
-0.175
-0.175
-0.175
-0.175
-0.175
-0.175
-0.175
-0.175
-0.175
-0.175
-0.175
-0.175
-0.175
-0.175
-0.175
-0.175
-0.175
-0.175
-0.175
-0.175
-0.175
-0.175
-0.175
-0.175
-0.175
-0.175
-0.175
-0.175
-0.175
-0.175
-0.175
-0.175
-0.175
-0.175
-0.175
-0.175
-0.175
-0.175
-0.175
-0.175
-0.175
-0.175
-0.175
-0.175
-0.175
-0.175
-0.175
-0.175
-0.175
-0.175
-0.175
-0.175
-0.175
-0.175
-0.175
-0.175
-0.175
-0.175
-0.175
-0.175
-0.175
-0.175
-0.175
-0.175
-0.175
-0.175
-0.175
-0.175
-0.175
-0.175
-0.175
-0.175
-0.175
-0.175
-0.175
-0.175
-0.175
-0.175
-0.175
-0.175
-0.175
-0.175
-0.175
-0.175
-0.175
-0.175
-0.175
-0.175
-0.175
-0.175
-0.175
-0.175
-0.175
-0.175
-0.175
-0.175
-0.175
-0.175
-0.175
-0.175
-0.175
-0.175
-0.175
-0.175
-0.175
-0.175
-0.175
-0.175
-0.175
-0.175
-0.175
-0.175
-0.175
-0.175
-0.175
-0.175
-0.175
-0.175
-0.175
-0.175
-0.175
-0.175
-0.175
-0.175
-0.175
-0.175
-0.175
-0.175
-0.175
-0.175
-0.175
-0.175
-0.175
-0.175
-0.175
-0.175
-0.175
-0.175
-0.175
-0.175
-0.175
-0.175
-0.175
-0.175
-0.175
-0.175
-0.175
-0.175
-0.175
-0.15
-0.125
-0.1
-0.075
-0.05
-0.025
0.0
0.025
0.05
0.075
0.125
0.15
0.175
0.2
0.225
0.25
0.275
0.3
0.325
0.35
0.375
0.425
0.45
0.475
0.5
0.525
0.55
0.575
0.6
0.625
0.65
0.7
0.65
0.625
0.6
0.575
0.55
0.525
0.5
0.475
0.45
0.425
0.375
0.35
0.325
0.3
0.275
0.25
0.225
0.2
0.175
0.15
0.125
0.075
0.05
0.025
0.0
-0.025
-0.05
-0.075
-0.1
-0.125
-0.15
-0.175
-0.2
-0.225
-0.25
-0.275
-0.25
-0.225
-0.2
-0.175
-0.175
-0.175
-0.175
-0.175
-0.175
-0.175
-0.175
-0.175
-0.175
-0.175
-0.175
-0.175
-0.175
-0.175
-0.175
-0.175
-0.175
-0.175
-0.175
-0.175
-0.175
-0.175
-0.175
-0.175
-0.175
-0.175
-0.175
-0.175
-0.175
-0.175
-0.175
-0.175
-0.175
-0.175
-0.175
-0.175
-0.175
-0.175
-0.175
-0.175
-0.175
-0.175
-0.175
-0.175
-0.175
-0.175
-0.175
-0.175
-0.175
-0.175
-0.175
-0.175
-0.175
-0.175
-0.175
-0.175
-0.175
-0.175
-0.175
-0.175
-0.175
-0.175
-0.175
-0.175
-0.175
-0.175
-0.175
-0.175
-0.175
-0.175
-0.175
-0.175
-0.175
-0.175
-0.175
-0.175
-0.175
-0.175
-0.175
-0.175
-0.175
-0.175
-0.175
-0.175
-0.175
-0.175
-0.175
-0.175
-0.175
-0.175
-0.175
-0.175
-0.175
-0.175
-0.175
-0.175
-0.175
-0.175
-0.175
-0.175
-0.175
-0.175
-0.175
-0.175
-0.175
-0.175
-0.175
-0.175
-0.175
-0.175
-0.175
-0.175
-0.175
-0.175
-0.175
-0.175
-0.175
-0.175
-0.175
-0.175
-0.175
-0.175
-0.175
-0.175
-0.175
-0.175
-0.175
-0.175
-0.175
-0.175
-0.175
-0.175
-0.175
-0.175
-0.175
-0.175
-0.175
-0.175
-0.175
-0.175
-0.175
-0.175
-0.175
-0.175
-0.175
-0.175
-0.175
-0.175
-0.175
-0.175
-0.175
-0.175
-0.175
-0.175
-0.175
-0.175
-0.175
-0.175
-0.175
-0.175
-0.175
-0.175
-0.175
-0.175
-0.175
-0.175
-0.175
-0.175
-0.175
-0.175
-0.175
-0.175
-0.175
-0.175
-0.175
-0.175
-0.175
-0.175
-0.175
-0.175
-0.175
-0.175
-0.175
-0.175
-0.175
-0.175
-0.175
-0.175
-0.175
-0.175
-0.175
-0.175
-0.175
-0.175
-0.175
-0.175
-0.175
-0.175
-0.175
-0.175
-0.175
-0.175
-0.175
-0.175
-0.175
-0.175
-0.175
-0.175
-0.175
-0.175
-0.175
-0.175
-0.175
-0.175
-0.175
-0.175
-0.175
-0.175
-0.175
-0.175
-0.175
-0.175
-0.175
-0.175
-0.175
-0.175
-0.175
-0.175
-0.175
-0.175
-0.175
-0.175
-0.175
-0.175
-0.175
-0.175
-0.175
-0.175
-0.175
-0.175
-0.175
-0.175
-0.175
-0.175
-0.175
-0.175
-0.175
-0.175
-0.175
-0.175
-0.175
-0.175
-0.175
-0.175
-0.175
-0.175
-0.175
-0.175
-0.175
-0.175
-0.175
-0.175
-0.175
-0.175
-0.175
-0.175
-0.175
-0.175
-0.175
-0.175
-0.175
-0.175
-0.175
-0.175
-0.175
-0.175
-0.175
-0.175
-0.175
-0.175
-0.175
-0.175
-0.175
-0.175
-0.175
-0.175
-0.175
-0.175
-0.175
-0.175
-0.175
-0.175
-0.175
-0.175
-0.175
-0.175
-0.175
-0.175
-0.175
-0.175
-0.175
-0.175
-0.175
-0.175
-0.175
-0.175
-0.175
-0.175
-0.175
-0.175
-0.175
-0.175
-0.175
-0.175
-0.175
-0.175
-0.175
-0.175
-0.175
-0.175
-0.175
-0.175
-0.175
-0.175
-0.175
-0.175
-0.175
-0.175
-0.175
-0.175
-0.175
-0.175
-0.175
-0.175
-0.175
-0.175
-0.175
-0.175
-0.175
-0.175
-0.175
-0.175
-0.175
-0.175
-0.175
-0.175
-0.175
-0.175
-0.175
-0.175
-0.175
-0.175
-0.175
-0.175
-0.175
-0.175
-0.175
-0.175
-0.175
-0.175
-0.175
-0.175
-0.175
-0.175
-0.175
-0.175
-0.175
-0.175
-0.175
-0.175
-0.175
-0.175
-0.175
-0.175
-0.175
-0.175
-0.175
-0.175
-0.175
-0.175
-0.175
-0.175
-0.175
-0.175
-0.175
-0.175
-0.175
-0.175
-0.175
-0.175
-0.175
-0.175
-0.175
-0.175
-0.175
-0.175
-0.175
-0.175
-0.175
-0.175
-0.175
-0.175
-0.175
-0.175
-0.175
-0.175
-0.175
-0.175
-0.175
-0.175
-0.175
-0.175
-0.175
-0.175
-0.175
-0.175
-0.175
-0.175
-0.175
-0.175
-0.175
-0.175
-0.175
-0.175
-0.175
-0.175
-0.175
-0.175
-0.175
-0.175
-0.175
-0.175
-0.175
-0.175
-0.175
-0.175
-0.175
-0.175
-0.175
-0.175
-0.175
-0.175
-0.175
-0.175
-0.175
-0.175
-0.175
-0.175
-0.175
-0.175
-0.175
-0.175
-0.175
-0.175
-0.175
-0.175
-0.175
-0.175
-0.175
-0.175
-0.175
-0.175
-0.175
-0.175
-0.175
-0.175
-0.175
-0.175
-0.15
-0.125
-0.1
-0.075
-0.05
-0.025
0.0
0.025
0.05
0.075
0.125
0.15
0.175
0.2
0.225
0.25
0.275
0.3
0.325
0.35
0.375
0.425
0.45
0.475
0.5
0.525
0.55
0.575
0.6
0.625
0.65
0.7
0.65
0.625
0.6
0.575
0.55
0.525
0.5
0.475
0.45
0.425
0.375
0.35
0.325
0.3
0.275
0.25
0.225
0.2
0.175
0.15
0.125
0.075
0.05
0.025
0.0
-0.025
-0.05
-0.075
-0.1
-0.125
-0.15
-0.175
-0.2
-0.225
-0.25
-0.275
-0.25
-0.225
-0.2
-0.175
-0.175
-0.175
-0.175
-0.175
-0.175
-0.175
-0.175
-0.175
-0.175
-0.175
-0.175
-0.175
-0.175
-0.175
-0.175
-0.175
-0.175
-0.175
-0.175
-0.175
-0.175
-0.175
-0.175
-0.175
-0.175
-0.175
-0.175
-0.175
-0.175
-0.175
-0.175
-0.175
-0.175
-0.175
-0.175
-0.175
-0.175
-0.175
-0.175
-0.175
-0.175
-0.175
-0.175
-0.175
-0.175
-0.175
-0.175
-0.175
-0.175
-0.175
-0.175
-0.175
-0.175
-0.175
-0.175
-0.175
-0.175
-0.175
-0.175
-0.175
-0.175
-0.175
-0.175
-0.175
-0.175
-0.175
-0.175
-0.175
-0.175
-0.175
-0.175
-0.175
-0.175
-0.175
-0.175
-0.175
-0.175
-0.175
-0.175
-0.175
-0.175
-0.175
-0.175
-0.175
-0.175
-0.175
-0.175
-0.175
-0.175
-0.175
-0.175
-0.175
-0.175
-0.175
-0.175
-0.175
-0.175
-0.175
-0.175
-0.175
-0.175
-0.175
-0.175
-0.175
-0.175
-0.175
-0.175
-0.175
-0.175
-0.175
-0.175
-0.175
-0.175
-0.175
-0.175
-0.175
-0.175
-0.175
-0.175
-0.175
-0.175
-0.175
-0.175
-0.175
-0.175
-0.175
-0.175
-0.175
-0.175
-0.175
-0.175
-0.175
-0.175
-0.175
-0.175
-0.175
-0.175
-0.175
-0.175
-0.175
-0.175
-0.175
-0.175
-0.175
-0.175
-0.175
-0.175
-0.175
-0.175
-0.175
-0.175
-0.175
-0.175
-0.175
-0.175
-0.175
-0.175
-0.175
-0.175
-0.175
-0.175
-0.175
-0.175
-0.175
-0.175
-0.175
-0.175
-0.175
-0.175
-0.175
-0.175
-0.175
-0.175
-0.175
-0.175
-0.175
-0.175
-0.175
-0.175
-0.175
-0.175
-0.175
-0.175
-0.175
-0.175
-0.175
-0.175
-0.175
-0.175
-0.175
-0.175
-0.175
-0.175
-0.175
-0.175
-0.175
-0.175
-0.175
-0.175
-0.175
-0.175
-0.175
-0.175
-0.175
-0.175
-0.175
-0.175
-0.175
-0.175
-0.175
-0.175
-0.175
-0.175
-0.175
-0.175
-0.175
-0.175
-0.175
-0.175
-0.175
-0.175
-0.175
-0.175
-0.175
-0.175
-0.175
-0.175
-0.175
-0.175
-0.175
-0.175
-0.175
-0.175
-0.175
-0.175
-0.175
-0.175
-0.175
-0.175
-0.175
-0.175
-0.175
-0.175
-0.175
-0.175
-0.175
-0.175
-0.175
-0.175
-0.175
-0.175
-0.175
-0.175
-0.175
-0.175
-0.175
-0.175
-0.175
-0.175
-0.175
-0.175
-0.175
-0.175
-0.175
-0.175
-0.175
-0.175
-0.175
-0.175
-0.175
-0.175
-0.175
-0.175
-0.175
-0.175
-0.175
-0.175
-0.175
-0.175
-0.175
-0.175
-0.175
-0.175
-0.175
-0.175
-0.175
-0.175
-0.175
-0.175
-0.175
-0.175
-0.175
-0.175
-0.175
-0.175
-0.175
-0.175
-0.175
-0.175
-0.175
-0.175
-0.175
-0.175
-0.175
-0.175
-0.175
-0.175
-0.175
-0.175
-0.175
-0.175
-0.175
-0.175
-0.175
-0.175
-0.175
-0.175
-0.175
-0.175
-0.175
-0.175
-0.175
-0.175
-0.175
-0.175
-0.175
-0.175
-0.175
-0.175
-0.175
-0.175
-0.175
-0.175
-0.175
-0.175
-0.175
-0.175
-0.175
-0.175
-0.175
-0.175
-0.175
-0.175
-0.175
-0.175
-0.175
-0.175
-0.175
-0.175
-0.175
-0.175
-0.175
-0.175
-0.175
-0.175
-0.175
-0.175
-0.175
-0.175
-0.175
-0.175
-0.175
-0.175
-0.175
-0.175
-0.175
-0.175
-0.175
-0.175
-0.175
-0.175
-0.175
-0.175
-0.175
-0.175
-0.175
-0.175
-0.175
-0.175
-0.175
-0.175
-0.175
-0.175
-0.175
-0.175
-0.175
-0.175
-0.175
-0.175
-0.175
-0.175
-0.175
-0.175
-0.175
-0.175
-0.175
-0.175
-0.175
-0.175
-0.175
-0.175
-0.175
-0.175
-0.175
-0.175
-0.175
-0.175
-0.175
-0.175
-0.175
-0.175
-0.175
-0.175
-0.175
-0.175
-0.175
-0.175
-0.175
-0.175
-0.175
-0.175
-0.175
-0.175
-0.175
-0.175
-0.175
-0.175
-0.175
-0.175
-0.175
-0.175
-0.175
-0.175
-0.175
-0.175
-0.175
-0.175
-0.175
-0.175
-0.175
-0.175
-0.175
-0.175
-0.175
-0.175
-0.175
-0.175
-0.175
-0.175
-0.175
-0.175
-0.175
-0.175
-0.175
-0.175
-0.175
-0.175
-0.175
-0.175
-0.175
-0.175
-0.175
-0.175
-0.175
-0.175
-0.175
-0.175
-0.175
-0.15
-0.125
-0.1
-0.075
-0.05
-0.025
0.0
0.025
0.05
0.075
0.125
0.15
0.175
0.2
0.225
0.25
0.275
0.3
0.325
0.35
0.375
0.425
0.45
0.475
0.5
0.525
0.55
0.575
0.6
0.625
0.65
0.7
0.65
0.625
0.6
0.575
0.55
0.525
0.5
0.475
0.45
0.425
0.375
0.35
0.325
0.3
0.275
0.25
0.225
0.2
0.175
0.15
0.125
0.075
0.05
0.025
0.0
-0.025
-0.05
-0.075
-0.1
-0.125
-0.15
-0.175
-0.2
-0.225
-0.25
-0.275
-0.25
-0.225
-0.2
-0.175
-0.175
-0.175
-0.175
-0.175
-0.175
-0.175
-0.175
-0.175
-0.175
-0.175
-0.175
-0.175
-0.175
-0.175
-0.175
-0.175
-0.175
-0.175
-0.175
-0.175
-0.175
-0.175
-0.175
-0.175
-0.175
-0.175
-0.175
-0.175
-0.175
-0.175
-0.175
-0.175
-0.175
-0.175
-0.175
-0.175
-0.175
-0.175
-0.175
-0.175
-0.175
-0.175
-0.175
-0.175
-0.175
-0.175
-0.175
-0.175
-0.175
-0.175
-0.175
-0.175
-0.175
-0.175
-0.175
-0.175
-0.175
-0.175
-0.175
-0.175
-0.175
-0.175
-0.175
-0.175
-0.175
-0.175
-0.175
-0.175
-0.175
-0.175
-0.175
-0.175
-0.175
-0.175
-0.175
-0.175
-0.175
-0.175
-0.175
-0.175
-0.175
-0.175
-0.175
-0.175
-0.175
-0.175
-0.175
-0.175
-0.175
-0.175
-0.175
-0.175
-0.175
-0.175
-0.175
-0.175
-0.175
-0.175
-0.175
-0.175
-0.175
-0.175
-0.175
-0.175
-0.175
-0.175
-0.175
-0.175
-0.175
-0.175
-0.175
-0.175
-0.175
-0.175
-0.175
-0.175
-0.175
-0.175
-0.175
-0.175
-0.175
-0.175
-0.175
-0.175
-0.175
-0.175
-0.175
-0.175
-0.175
-0.175
-0.175
-0.175
-0.175
-0.175
-0.175
-0.175
-0.175
-0.175
-0.175
-0.175
-0.175
-0.175
-0.175
-0.175
-0.175
-0.175
-0.175
-0.175
-0.175
-0.175
-0.175
-0.175
-0.175
-0.175
-0.175
-0.175
-0.175
-0.175
-0.175
-0.175
-0.175
-0.175
-0.175
-0.175
-0.175
-0.175
-0.175
-0.175
-0.175
-0.175
-0.175
-0.175
-0.175
-0.175
-0.175
-0.175
-0.175
-0.175
-0.175
-0.175
-0.175
-0.175
-0.175
-0.175
-0.175
-0.175
-0.175
-0.175
-0.175
-0.175
-0.175
-0.175
-0.175
-0.175
-0.175
-0.175
-0.175
-0.175
-0.175
-0.175
-0.175
-0.175
-0.175
-0.175
-0.175
-0.175
-0.175
-0.175
-0.175
-0.175
-0.175
-0.175
-0.175
-0.175
-0.175
-0.175
-0.175
-0.175
-0.175
-0.175
-0.175
-0.175
-0.175
-0.175
-0.175
-0.175
-0.175
-0.175
-0.175
-0.175
-0.175
-0.175
-0.175
-0.175
-0.175
-0.175
-0.175
-0.175
-0.175
-0.175
-0.175
-0.175
-0.175
-0.175
-0.175
-0.175
-0.175
-0.175
-0.175
-0.175
-0.175
-0.175
-0.175
-0.175
-0.175
-0.175
-0.175
-0.175
-0.175
-0.175
-0.175
-0.175
-0.175
-0.175
-0.175
-0.175
-0.175
-0.175
-0.175
-0.175
-0.175
-0.175
-0.175
-0.175
-0.175
-0.175
-0.175
-0.175
-0.175
-0.175
-0.175
-0.175
-0.175
-0.175
-0.175
-0.175
-0.175
-0.175
-0.175
-0.175
-0.175
-0.175
-0.175
-0.175
-0.175
-0.175
-0.175
-0.175
-0.175
-0.175
-0.175
-0.175
-0.175
-0.175
-0.175
-0.175
-0.175
-0.175
-0.175
-0.175
-0.175
-0.175
-0.175
-0.175
-0.175
-0.175
-0.175
-0.175
-0.175
-0.175
-0.175
-0.175
-0.175
-0.175
-0.175
-0.175
-0.175
-0.175
-0.175
-0.175
-0.175
-0.175
-0.175
-0.175
-0.175
-0.175
-0.175
-0.175
-0.175
-0.175
-0.175
-0.175
-0.175
-0.175
-0.175
-0.175
-0.175
-0.175
-0.175
-0.175
-0.175
-0.175
-0.175
-0.175
-0.175
-0.175
-0.175
-0.175
-0.175
-0.175
-0.175
-0.175
-0.175
-0.175
-0.175
-0.175
-0.175
-0.175
-0.175
-0.175
-0.175
-0.175
-0.175
-0.175
-0.175
-0.175
-0.175
-0.175
-0.175
-0.175
-0.175
-0.175
-0.175
-0.175
-0.175
-0.175
-0.175
-0.175
-0.175
-0.175
-0.175
-0.175
-0.175
-0.175
-0.175
-0.175
-0.175
-0.175
-0.175
-0.175
-0.175
-0.175
-0.175
-0.175
-0.175
-0.175
-0.175
-0.175
-0.175
-0.175
-0.175
-0.175
-0.175
-0.175
-0.175
-0.175
-0.175
-0.175
-0.175
-0.175
-0.175
-0.175
-0.175
-0.175
-0.175
-0.175
-0.175
-0.175
-0.175
-0.175
-0.175
-0.175
-0.175
-0.175
-0.175
-0.175
-0.175
-0.175
-0.175
-0.175
-0.175
-0.175
-0.175
-0.175
-0.175
-0.175
-0.175
-0.175
-0.175
-0.175
-0.175
-0.175
-0.175
-0.175
-0.175
-0.175
-0.175
-0.175
-0.175
-0.175
-0.175
-0.175
-0.175
-0.175
-0.175
-0.175
-0.175
-0.175
-0.15
-0.125
-0.1
-0.075
-0.05
-0.025
0.0
0.025
0.05
0.075
0.125
0.15
0.175
0.2
0.225
0.25
0.275
0.3
0.325
0.35
0.375
0.425
0.45
0.475
0.5
0.525
0.55
0.575
0.6
0.625
0.65
0.7
0.65
0.625
0.6
0.575
0.55
0.525
0.5
0.475
0.45
0.425
0.375
0.35
0.325
0.3
0.275
0.25
0.225
0.2
0.175
0.15
0.125
0.075
0.05
0.025
0.0
-0.025
-0.05
-0.075
-0.1
-0.125
-0.15
-0.175
-0.2
-0.225
-0.25
-0.275
-0.25
-0.225
-0.2
-0.175
-0.175
-0.175
-0.175
-0.175
-0.175
-0.175
-0.175
-0.175
-0.175
-0.175
-0.175
-0.175
-0.175
-0.175
-0.175
-0.175
-0.175
-0.175
-0.175
-0.175
-0.175
-0.175
-0.175
-0.175
-0.175
-0.175
-0.175
-0.175
-0.175
-0.175
-0.175
-0.175
-0.175
-0.175
-0.175
-0.175
-0.175
-0.175
-0.175
-0.175
-0.175
-0.175
-0.175
-0.175
-0.175
-0.175
-0.175
-0.175
-0.175
-0.175
-0.175
-0.175
-0.175
-0.175
-0.175
-0.175
-0.175
-0.175
-0.175
-0.175
-0.175
-0.175
-0.175
-0.175
-0.175
-0.175
-0.175
-0.175
-0.175
-0.175
-0.175
-0.175
-0.175
-0.175
-0.175
-0.175
-0.175
-0.175
-0.175
-0.175
-0.175
-0.175
-0.175
-0.175
-0.175
-0.175
-0.175
-0.175
-0.175
-0.175
-0.175
-0.175
-0.175
-0.175
-0.175
-0.175
-0.175
-0.175
-0.175
-0.175
-0.175
-0.175
-0.175
-0.175
-0.175
-0.175
-0.175
-0.175
-0.175
-0.175
-0.175
-0.175
-0.175
-0.175
-0.175
-0.175
-0.175
-0.175
-0.175
-0.175
-0.175
-0.175
-0.175
-0.175
-0.175
-0.175
-0.175
-0.175
-0.175
-0.175
-0.175
-0.175
-0.175
-0.175
-0.175
-0.175
-0.175
-0.175
-0.175
-0.175
-0.175
-0.175
-0.175
-0.175
-0.175
-0.175
-0.175
-0.175
-0.175
-0.175
-0.175
-0.175
-0.175
-0.175
-0.175
-0.175
-0.175
-0.175
-0.175
-0.175
-0.175
-0.175
-0.175
-0.175
-0.175
-0.175
-0.175
-0.175
-0.175
-0.175
-0.175
-0.175
-0.175
-0.175
-0.175
-0.175
-0.175
-0.175
-0.175
-0.175
-0.175
-0.175
-0.175
-0.175
-0.175
-0.175
-0.175
-0.175
-0.175
-0.175
-0.175
-0.175
-0.175
-0.175
-0.175
-0.175
-0.175
-0.175
-0.175
-0.175
-0.175
-0.175
-0.175
-0.175
-0.175
-0.175
-0.175
-0.175
-0.175
-0.175
-0.175
-0.175
-0.175
-0.175
-0.175
-0.175
-0.175
-0.175
-0.175
-0.175
-0.175
-0.175
-0.175
-0.175
-0.175
-0.175
-0.175
-0.175
-0.175
-0.175
-0.175
-0.175
-0.175
-0.175
-0.175
-0.175
-0.175
-0.175
-0.175
-0.175
-0.175
-0.175
-0.175
-0.175
-0.175
-0.175
-0.175
-0.175
-0.175
-0.175
-0.175
-0.175
-0.175
-0.175
-0.175
-0.175
-0.175
-0.175
-0.175
-0.175
-0.175
-0.175
-0.175
-0.175
-0.175
-0.175
-0.175
-0.175
-0.175
-0.175
-0.175
-0.175
-0.175
-0.175
-0.175
-0.175
-0.175
-0.175
-0.175
-0.175
-0.175
-0.175
-0.175
-0.175
-0.175
-0.175
-0.175
-0.175
-0.175
-0.175
-0.175
-0.175
-0.175
-0.175
-0.175
-0.175
-0.175
-0.175
-0.175
-0.175
-0.175
-0.175
-0.175
-0.175
-0.175
-0.175
-0.175
-0.175
-0.175
-0.175
-0.175
-0.175
-0.175
-0.175
-0.175
-0.175
-0.175
-0.175
-0.175
-0.175
-0.175
-0.175
-0.175
-0.175
-0.175
-0.175
-0.175
-0.175
-0.175
-0.175
-0.175
-0.175
-0.175
-0.175
-0.175
-0.175
-0.175
-0.175
-0.175
-0.175
-0.175
-0.175
-0.175
-0.175
-0.175
-0.175
-0.175
-0.175
-0.175
-0.175
-0.175
-0.175
-0.175
-0.175
-0.175
-0.175
-0.175
-0.175
-0.175
-0.175
-0.175
-0.175
-0.175
-0.175
-0.175
-0.175
-0.175
-0.175
-0.175
-0.175
-0.175
-0.175
-0.175
-0.175
-0.175
-0.175
-0.175
-0.175
-0.175
-0.175
-0.175
-0.175
-0.175
-0.175
-0.175
-0.175
-0.175
-0.175
-0.175
-0.175
-0.175
-0.175
-0.175
-0.175
-0.175
-0.175
-0.175
-0.175
-0.175
-0.175
-0.175
-0.175
-0.175
-0.175
-0.175
-0.175
-0.175
-0.175
-0.175
-0.175
-0.175
-0.175
-0.175
-0.175
-0.175
-0.175
-0.175
-0.175
-0.175
-0.175
-0.175
-0.175
-0.175
-0.175
-0.175
-0.175
-0.175
-0.175
-0.175
-0.175
-0.175
-0.175
-0.175
-0.175
-0.175
-0.175
-0.175
-0.175
-0.175
-0.175
-0.175
-0.175
-0.175
-0.175
-0.175
-0.175
-0.175
-0.175
-0.175
-0.175
-0.175
-0.175
-0.175
-0.175
-0.175
-0.175
-0.175
-0.175
-0.175
-0.175
-0.175
-0.175
-0.175
-0.175
-0.175
-0.175
-0.175
-0.175
-0.15
-0.125
-0.1
-0.075
-0.05
-0.025
0.0
0.025
0.05
0.075
0.125
0.15
0.175
0.2
0.225
0.25
0.275
0.3
0.325
0.35
0.375
0.425
0.45
0.475
0.5
0.525
0.55
0.575
0.6
0.625
0.65
0.7
0.65
0.625
0.6
0.575
0.55
0.525
0.5
0.475
0.45
0.425
0.375
0.35
0.325
0.3
0.275
0.25
0.225
0.2
0.175
0.15
0.125
0.075
0.05
0.025
0.0
-0.025
-0.05
-0.075
-0.1
-0.125
-0.15
-0.175
-0.2
-0.225
-0.25
-0.275
-0.25
-0.225
-0.2
-0.175
-0.175
-0.175
-0.175
-0.175
-0.175
-0.175
-0.175
-0.175
-0.175
-0.175
-0.175
-0.175
-0.175
-0.175
-0.175
-0.175
-0.175
-0.175
-0.175
-0.175
-0.175
-0.175
-0.175
-0.175
-0.175
-0.175
-0.175
-0.175
-0.175
-0.175
-0.175
-0.175
-0.175
-0.175
-0.175
-0.175
-0.175
-0.175
-0.175
-0.175
-0.175
-0.175
-0.175
-0.175
-0.175
-0.175
-0.175
-0.175
-0.175
-0.175
-0.175
-0.175
-0.175
-0.175
-0.175
-0.175
-0.175
-0.175
-0.175
-0.175
-0.175
-0.175
-0.175
-0.175
-0.175
-0.175
-0.175
-0.175
-0.175
-0.175
-0.175
-0.175
-0.175
-0.175
-0.175
-0.175
-0.175
-0.175
-0.175
-0.175
-0.175
-0.175
-0.175
-0.175
-0.175
-0.175
-0.175
-0.175
-0.175
-0.175
-0.175
-0.175
-0.175
-0.175
-0.175
-0.175
-0.175
-0.175
-0.175
-0.175
-0.175
-0.175
-0.175
-0.175
-0.175
-0.175
-0.175
-0.175
-0.175
-0.175
-0.175
-0.175
-0.175
-0.175
-0.175
-0.175
-0.175
-0.175
-0.175
-0.175
-0.175
-0.175
-0.175
-0.175
-0.175
-0.175
-0.175
-0.175
-0.175
-0.175
-0.175
-0.175
-0.175
-0.175
-0.175
-0.175
-0.175
-0.175
-0.175
-0.175
-0.175
-0.175
-0.175
-0.175
-0.175
-0.175
-0.175
-0.175
-0.175
-0.175
-0.175
-0.175
-0.175
-0.175
-0.175
-0.175
-0.175
-0.175
-0.175
-0.175
-0.175
-0.175
-0.175
-0.175
-0.175
-0.175
-0.175
-0.175
-0.175
-0.175
-0.175
-0.175
-0.175
-0.175
-0.175
-0.175
-0.175
-0.175
-0.175
-0.175
-0.175
-0.175
-0.175
-0.175
-0.175
-0.175
-0.175
-0.175
-0.175
-0.175
-0.175
-0.175
-0.175
-0.175
-0.175
-0.175
-0.175
-0.175
-0.175
-0.175
-0.175
-0.175
-0.175
-0.175
-0.175
-0.175
-0.175
-0.175
-0.175
-0.175
-0.175
-0.175
-0.175
-0.175
-0.175
-0.175
-0.175
-0.175
-0.175
-0.175
-0.175
-0.175
-0.175
-0.175
-0.175
-0.175
-0.175
-0.175
-0.175
-0.175
-0.175
-0.175
-0.175
-0.175
-0.175
-0.175
-0.175
-0.175
-0.175
-0.175
-0.175
-0.175
-0.175
-0.175
-0.175
-0.175
-0.175
-0.175
-0.175
-0.175
-0.175
-0.175
-0.175
-0.175
-0.175
-0.175
-0.175
-0.175
-0.175
-0.175
-0.175
-0.175
-0.175
-0.175
-0.175
-0.175
-0.175
-0.175
-0.175
-0.175
-0.175
-0.175
-0.175
-0.175
-0.175
-0.175
-0.175
-0.175
-0.175
-0.175
-0.175
-0.175
-0.175
-0.175
-0.175
-0.175
-0.175
-0.175
-0.175
-0.175
-0.175
-0.175
-0.175
-0.175
-0.175
-0.175
-0.175
-0.175
-0.175
-0.175
-0.175
-0.175
-0.175
-0.175
-0.175
-0.175
-0.175
-0.175
-0.175
-0.175
-0.175
-0.175
-0.175
-0.175
-0.175
-0.175
-0.175
-0.175
-0.175
-0.175
-0.175
-0.175
-0.175
-0.175
-0.175
-0.175
-0.175
-0.175
-0.175
-0.175
-0.175
-0.175
-0.175
-0.175
-0.175
-0.175
-0.175
-0.175
-0.175
-0.175
-0.175
-0.175
-0.175
-0.175
-0.175
-0.175
-0.175
-0.175
-0.175
-0.175
-0.175
-0.175
-0.175
-0.175
-0.175
-0.175
-0.175
-0.175
-0.175
-0.175
-0.175
-0.175
-0.175
-0.175
-0.175
-0.175
-0.175
-0.175
-0.175
-0.175
-0.175
-0.175
-0.175
-0.175
-0.175
-0.175
-0.175
-0.175
-0.175
-0.175
-0.175
-0.175
-0.175
-0.175
-0.175
-0.175
-0.175
-0.175
-0.175
-0.175
-0.175
-0.175
-0.175
-0.175
-0.175
-0.175
-0.175
-0.175
-0.175
-0.175
-0.175
-0.175
-0.175
-0.175
-0.175
-0.175
-0.175
-0.175
-0.175
-0.175
-0.175
-0.175
-0.175
-0.175
-0.175
-0.175
-0.175
-0.175
-0.175
-0.175
-0.175
-0.175
-0.175
-0.175
-0.175
-0.175
-0.175
-0.175
-0.175
-0.175
-0.175
-0.175
-0.175
-0.175
-0.175
-0.175
-0.175
-0.175
-0.175
-0.175
-0.175
-0.175
-0.175
-0.175
-0.175
-0.175
-0.175
-0.175
-0.175
-0.175
-0.175
-0.175
-0.175
-0.175
-0.175
-0.175
-0.175
-0.175
-0.175
-0.175
-0.175
-0.175
-0.175
-0.175
-0.175
-0.175
-0.175
-0.175
-0.15
-0.125
-0.1
-0.075
-0.05
-0.025
0.0
0.025
0.05
0.075
0.125
0.15
0.175
0.2
0.225
0.25
0.275
0.3
0.325
0.35
0.375
0.425
0.45
0.475
0.5
0.525
0.55
0.575
0.6
0.625
0.65
0.7
0.65
0.625
0.6
0.575
0.55
0.525
0.5
0.475
0.45
0.425
0.375
0.35
0.325
0.3
0.275
0.25
0.225
0.2
0.175
0.15
0.125
0.075
0.05
0.025
0.0
-0.025
-0.05
-0.075
-0.1
-0.125
-0.15
-0.175
-0.2
-0.225
-0.25
-0.275
-0.25
-0.225
-0.2
-0.175
-0.175
-0.175
-0.175
-0.175
-0.175
-0.175
-0.175
-0.175
-0.175
-0.175
-0.175
-0.175
-0.175
-0.175
-0.175
-0.175
-0.175
-0.175
-0.175
-0.175
-0.175
-0.175
-0.175
-0.175
-0.175
-0.175
-0.175
-0.175
-0.175
-0.175
-0.175
-0.175
-0.175
-0.175
-0.175
-0.175
-0.175
-0.175
-0.175
-0.175
-0.175
-0.175
-0.175
-0.175
-0.175
-0.175
-0.175
-0.175
-0.175
-0.175
-0.175
-0.175
-0.175
-0.175
-0.175
-0.175
-0.175
-0.175
-0.175
-0.175
-0.175
-0.175
-0.175
-0.175
-0.175
-0.175
-0.175
-0.175
-0.175
-0.175
-0.175
-0.175
-0.175
-0.175
-0.175
-0.175
-0.175
-0.175
-0.175
-0.175
-0.175
-0.175
-0.175
-0.175
-0.175
-0.175
-0.175
-0.175
-0.175
-0.175
-0.175
-0.175
-0.175
-0.175
-0.175
-0.175
-0.175
-0.175
-0.175
-0.175
-0.175
-0.175
-0.175
-0.175
-0.175
-0.175
-0.175
-0.175
-0.175
-0.175
-0.175
-0.175
-0.175
-0.175
-0.175
-0.175
-0.175
-0.175
-0.175
-0.175
-0.175
-0.175
-0.175
-0.175
-0.175
-0.175
-0.175
-0.175
-0.175
-0.175
-0.175
-0.175
-0.175
-0.175
-0.175
-0.175
-0.175
-0.175
-0.175
-0.175
-0.175
-0.175
-0.175
-0.175
-0.175
-0.175
-0.175
-0.175
-0.175
-0.175
-0.175
-0.175
-0.175
-0.175
-0.175
-0.175
-0.175
-0.175
-0.175
-0.175
-0.175
-0.175
-0.175
-0.175
-0.175
-0.175
-0.175
-0.175
-0.175
-0.175
-0.175
-0.175
-0.175
-0.175
-0.175
-0.175
-0.175
-0.175
-0.175
-0.175
-0.175
-0.175
-0.175
-0.175
-0.175
-0.175
-0.175
-0.175
-0.175
-0.175
-0.175
-0.175
-0.175
-0.175
-0.175
-0.175
-0.175
-0.175
-0.175
-0.175
-0.175
-0.175
-0.175
-0.175
-0.175
-0.175
-0.175
-0.175
-0.175
-0.175
-0.175
-0.175
-0.175
-0.175
-0.175
-0.175
-0.175
-0.175
-0.175
-0.175
-0.175
-0.175
-0.175
-0.175
-0.175
-0.175
-0.175
-0.175
-0.175
-0.175
-0.175
-0.175
-0.175
-0.175
-0.175
-0.175
-0.175
-0.175
-0.175
-0.175
-0.175
-0.175
-0.175
-0.175
-0.175
-0.175
-0.175
-0.175
-0.175
-0.175
-0.175
-0.175
-0.175
-0.175
-0.175
-0.175
-0.175
-0.175
-0.175
-0.175
-0.175
-0.175
-0.175
-0.175
-0.175
-0.175
-0.175
-0.175
-0.175
-0.175
-0.175
-0.175
-0.175
-0.175
-0.175
-0.175
-0.175
-0.175
-0.175
-0.175
-0.175
-0.175
-0.175
-0.175
-0.175
-0.175
-0.175
-0.175
-0.175
-0.175
-0.175
-0.175
-0.175
-0.175
-0.175
-0.175
-0.175
-0.175
-0.175
-0.175
-0.175
-0.175
-0.175
-0.175
-0.175
-0.175
-0.175
-0.175
-0.175
-0.175
-0.175
-0.175
-0.175
-0.175
-0.175
-0.175
-0.175
-0.175
-0.175
-0.175
-0.175
-0.175
-0.175
-0.175
-0.175
-0.175
-0.175
-0.175
-0.175
-0.175
-0.175
-0.175
-0.175
-0.175
-0.175
-0.175
-0.175
-0.175
-0.175
-0.175
-0.175
-0.175
-0.175
-0.175
-0.175
-0.175
-0.175
-0.175
-0.175
-0.175
-0.175
-0.175
-0.175
-0.175
-0.175
-0.175
-0.175
-0.175
-0.175
-0.175
-0.175
-0.175
-0.175
-0.175
-0.175
-0.175
-0.175
-0.175
-0.175
-0.175
-0.175
-0.175
-0.175
-0.175
-0.175
-0.175
-0.175
-0.175
-0.175
-0.175
-0.175
-0.175
-0.175
-0.175
-0.175
-0.175
-0.175
-0.175
-0.175
-0.175
-0.175
-0.175
-0.175
-0.175
-0.175
-0.175
-0.175
-0.175
-0.175
-0.175
-0.175
-0.175
-0.175
-0.175
-0.175
-0.175
-0.175
-0.175
-0.175
-0.175
-0.175
-0.175
-0.175
-0.175
-0.175
-0.175
-0.175
-0.175
-0.175
-0.175
-0.175
-0.175
-0.175
-0.175
-0.175
-0.175
-0.175
-0.175
-0.175
-0.175
-0.175
-0.175
-0.175
-0.175
-0.175
-0.175
-0.175
-0.175
-0.175
-0.175
-0.175
-0.175
-0.175
-0.175
-0.175
-0.175
-0.175
-0.175
-0.175
-0.175
-0.175
-0.175
-0.175
-0.175
-0.175
-0.175
-0.175
-0.175
-0.175
-0.175
-0.175
-0.175
-0.175
-0.175
-0.175
-0.175
-0.175
-0.175
-0.15
-0.125
-0.1
-0.075
-0.05
-0.025
0.0
0.025
0.05
0.075
0.125
0.15
0.175
0.2
0.225
0.25
0.275
0.3
0.325
0.35
0.375
0.425
0.45
0.475
0.5
0.525
0.55
0.575
0.6
0.625
0.65
0.7
0.65
0.625
0.6
0.575
0.55
0.525
0.5
0.475
0.45
0.425
0.375
0.35
0.325
0.3
0.275
0.25
0.225
0.2
0.175
0.15
0.125
0.075
0.05
0.025
0.0
-0.025
-0.05
-0.075
-0.1
-0.125
-0.15
-0.175
-0.2
-0.225
-0.25
-0.275
-0.25
-0.225
-0.2
-0.175
-0.175
-0.175
-0.175
-0.175
-0.175
-0.175
-0.175
-0.175
-0.175
-0.175
-0.175
-0.175
-0.175
-0.175
-0.175
-0.175
-0.175
-0.175
-0.175
-0.175
-0.175
-0.175
-0.175
-0.175
-0.175
-0.175
-0.175
-0.175
-0.175
-0.175
-0.175
-0.175
-0.175
-0.175
-0.175
-0.175
-0.175
-0.175
-0.175
-0.175
-0.175
-0.175
-0.175
-0.175
-0.175
-0.175
-0.175
-0.175
-0.175
-0.175
-0.175
-0.175
-0.175
-0.175
-0.175
-0.175
-0.175
-0.175
-0.175
-0.175
-0.175
-0.175
-0.175
-0.175
-0.175
-0.175
-0.175
-0.175
-0.175
-0.175
-0.175
-0.175
-0.175
-0.175
-0.175
-0.175
-0.175
-0.175
-0.175
-0.175
-0.175
-0.175
-0.175
-0.175
-0.175
-0.175
-0.175
-0.175
-0.175
-0.175
-0.175
-0.175
-0.175
-0.175
-0.175
-0.175
-0.175
-0.175
-0.175
-0.175
-0.175
-0.175
-0.175
-0.175
-0.175
-0.175
-0.175
-0.175
-0.175
-0.175
-0.175
-0.175
-0.175
-0.175
-0.175
-0.175
-0.175
-0.175
-0.175
-0.175
-0.175
-0.175
-0.175
-0.175
-0.175
-0.175
-0.175
-0.175
-0.175
-0.175
-0.175
-0.175
-0.175
-0.175
-0.175
-0.175
-0.175
-0.175
-0.175
-0.175
-0.175
-0.175
-0.175
-0.175
-0.175
-0.175
-0.175
-0.175
-0.175
-0.175
-0.175
-0.175
-0.175
-0.175
-0.175
-0.175
-0.175
-0.175
-0.175
-0.175
-0.175
-0.175
-0.175
-0.175
-0.175
-0.175
-0.175
-0.175
-0.175
-0.175
-0.175
-0.175
-0.175
-0.175
-0.175
-0.175
-0.175
-0.175
-0.175
-0.175
-0.175
-0.175
-0.175
-0.175
-0.175
-0.175
-0.175
-0.175
-0.175
-0.175
-0.175
-0.175
-0.175
-0.175
-0.175
-0.175
-0.175
-0.175
-0.175
-0.175
-0.175
-0.175
-0.175
-0.175
-0.175
-0.175
-0.175
-0.175
-0.175
-0.175
-0.175
-0.175
-0.175
-0.175
-0.175
-0.175
-0.175
-0.175
-0.175
-0.175
-0.175
-0.175
-0.175
-0.175
-0.175
-0.175
-0.175
-0.175
-0.175
-0.175
-0.175
-0.175
-0.175
-0.175
-0.175
-0.175
-0.175
-0.175
-0.175
-0.175
-0.175
-0.175
-0.175
-0.175
-0.175
-0.175
-0.175
-0.175
-0.175
-0.175
-0.175
-0.175
-0.175
-0.175
-0.175
-0.175
-0.175
-0.175
-0.175
-0.175
-0.175
-0.175
-0.175
-0.175
-0.175
-0.175
-0.175
-0.175
-0.175
-0.175
-0.175
-0.175
-0.175
-0.175
-0.175
-0.175
-0.175
-0.175
-0.175
-0.175
-0.175
-0.175
-0.175
-0.175
-0.175
-0.175
-0.175
-0.175
-0.175
-0.175
-0.175
-0.175
-0.175
-0.175
-0.175
-0.175
-0.175
-0.175
-0.175
-0.175
-0.175
-0.175
-0.175
-0.175
-0.175
-0.175
-0.175
-0.175
-0.175
-0.175
-0.175
-0.175
-0.175
-0.175
-0.175
-0.175
-0.175
-0.175
-0.175
-0.175
-0.175
-0.175
-0.175
-0.175
-0.175
-0.175
-0.175
-0.175
-0.175
-0.175
-0.175
-0.175
-0.175
-0.175
-0.175
-0.175
-0.175
-0.175
-0.175
-0.175
-0.175
-0.175
-0.175
-0.175
-0.175
-0.175
-0.175
-0.175
-0.175
-0.175
-0.175
-0.175
-0.175
-0.175
-0.175
-0.175
-0.175
-0.175
-0.175
-0.175
-0.175
-0.175
-0.175
-0.175
-0.175
-0.175
-0.175
-0.175
-0.175
-0.175
-0.175
-0.175
-0.175
-0.175
-0.175
-0.175
-0.175
-0.175
-0.175
-0.175
-0.175
-0.175
-0.175
-0.175
-0.175
-0.175
-0.175
-0.175
-0.175
-0.175
-0.175
-0.175
-0.175
-0.175
-0.175
-0.175
-0.175
-0.175
-0.175
-0.175
-0.175
-0.175
-0.175
-0.175
-0.175
-0.175
-0.175
-0.175
-0.175
-0.175
-0.175
-0.175
-0.175
-0.175
-0.175
-0.175
-0.175
-0.175
-0.175
-0.175
-0.175
-0.175
-0.175
-0.175
-0.175
-0.175
-0.175
-0.175
-0.175
-0.175
-0.175
-0.175
-0.175
-0.175
-0.175
-0.175
-0.175
-0.175
-0.175
-0.175
-0.175
-0.175
-0.175
-0.175
-0.175
-0.175
-0.175
-0.175
-0.175
-0.175
-0.175
-0.175
-0.175
-0.175
-0.175
-0.175
-0.175
-0.175
-0.175
-0.175
-0.175
-0.175
-0.175
-0.175
-0.175
-0.175
-0.175
-0.175
-0.15
-0.125
-0.1
-0.075
-0.05
-0.025
0.0
0.025
0.05
0.075
0.125
0.15
0.175
0.2
0.225
0.25
0.275
0.3
0.325
0.35
0.375
0.425
0.45
0.475
0.5
0.525
0.55
0.575
0.6
0.625
0.65
0.7
0.65
0.625
0.6
0.575
0.55
0.525
0.5
0.475
0.45
0.425
0.375
0.35
0.325
0.3
0.275
0.25
0.225
0.2
0.175
0.15
0.125
0.075
0.05
0.025
0.0
-0.025
-0.05
-0.075
-0.1
-0.125
-0.15
-0.175
-0.2
-0.225
-0.25
-0.275
-0.25
-0.225
-0.2
-0.175
-0.175
-0.175
-0.175
-0.175
-0.175
-0.175
-0.175
-0.175
-0.175
-0.175
-0.175
-0.175
-0.175
-0.175
-0.175
-0.175
-0.175
-0.175
-0.175
-0.175
-0.175
-0.175
-0.175
-0.175
-0.175
-0.175
-0.175
-0.175
-0.175
-0.175
-0.175
-0.175
-0.175
-0.175
-0.175
-0.175
-0.175
-0.175
-0.175
-0.175
-0.175
-0.175
-0.175
-0.175
-0.175
-0.175
-0.175
-0.175
-0.175
-0.175
-0.175
-0.175
-0.175
-0.175
-0.175
-0.175
-0.175
-0.175
-0.175
-0.175
-0.175
-0.175
-0.175
-0.175
-0.175
-0.175
-0.175
-0.175
-0.175
-0.175
-0.175
-0.175
-0.175
-0.175
-0.175
-0.175
-0.175
-0.175
-0.175
-0.175
-0.175
-0.175
-0.175
-0.175
-0.175
-0.175
-0.175
-0.175
-0.175
-0.175
-0.175
-0.175
-0.175
-0.175
-0.175
-0.175
-0.175
-0.175
-0.175
-0.175
-0.175
-0.175
-0.175
-0.175
-0.175
-0.175
-0.175
-0.175
-0.175
-0.175
-0.175
-0.175
-0.175
-0.175
-0.175
-0.175
-0.175
-0.175
-0.175
-0.175
-0.175
-0.175
-0.175
-0.175
-0.175
-0.175
-0.175
-0.175
-0.175
-0.175
-0.175
-0.175
-0.175
-0.175
-0.175
-0.175
-0.175
-0.175
-0.175
-0.175
-0.175
-0.175
-0.175
-0.175
-0.175
-0.175
-0.175
-0.175
-0.175
-0.175
-0.175
-0.175
-0.175
-0.175
-0.175
-0.175
-0.175
-0.175
-0.175
-0.175
-0.175
-0.175
-0.175
-0.175
-0.175
-0.175
-0.175
-0.175
-0.175
-0.175
-0.175
-0.175
-0.175
-0.175
-0.175
-0.175
-0.175
-0.175
-0.175
-0.175
-0.175
-0.175
-0.175
-0.175
-0.175
-0.175
-0.175
-0.175
-0.175
-0.175
-0.175
-0.175
-0.175
-0.175
-0.175
-0.175
-0.175
-0.175
-0.175
-0.175
-0.175
-0.175
-0.175
-0.175
-0.175
-0.175
-0.175
-0.175
-0.175
-0.175
-0.175
-0.175
-0.175
-0.175
-0.175
-0.175
-0.175
-0.175
-0.175
-0.175
-0.175
-0.175
-0.175
-0.175
-0.175
-0.175
-0.175
-0.175
-0.175
-0.175
-0.175
-0.175
-0.175
-0.175
-0.175
-0.175
-0.175
-0.175
-0.175
-0.175
-0.175
-0.175
-0.175
-0.175
-0.175
-0.175
-0.175
-0.175
-0.175
-0.175
-0.175
-0.175
-0.175
-0.175
-0.175
-0.175
-0.175
-0.175
-0.175
-0.175
-0.175
-0.175
-0.175
-0.175
-0.175
-0.175
-0.175
-0.175
-0.175
-0.175
-0.175
-0.175
-0.175
-0.175
-0.175
-0.175
-0.175
-0.175
-0.175
-0.175
-0.175
-0.175
-0.175
-0.175
-0.175
-0.175
-0.175
-0.175
-0.175
-0.175
-0.175
-0.175
-0.175
-0.175
-0.175
-0.175
-0.175
-0.175
-0.175
-0.175
-0.175
-0.175
-0.175
-0.175
-0.175
-0.175
-0.175
-0.175
-0.175
-0.175
-0.175
-0.175
-0.175
-0.175
-0.175
-0.175
-0.175
-0.175
-0.175
-0.175
-0.175
-0.175
-0.175
-0.175
-0.175
-0.175
-0.175
-0.175
-0.175
-0.175
-0.175
-0.175
-0.175
-0.175
-0.175
-0.175
-0.175
-0.175
-0.175
-0.175
-0.175
-0.175
-0.175
-0.175
-0.175
-0.175
-0.175
-0.175
-0.175
-0.175
-0.175
-0.175
-0.175
-0.175
-0.175
-0.175
-0.175
-0.175
-0.175
-0.175
-0.175
-0.175
-0.175
-0.175
-0.175
-0.175
-0.175
-0.175
-0.175
-0.175
-0.175
-0.175
-0.175
-0.175
-0.175
-0.175
-0.175
-0.175
-0.175
-0.175
-0.175
-0.175
-0.175
-0.175
-0.175
-0.175
-0.175
-0.175
-0.175
-0.175
-0.175
-0.175
-0.175
-0.175
-0.175
-0.175
-0.175
-0.175
-0.175
-0.175
-0.175
-0.175
-0.175
-0.175
-0.175
-0.175
-0.175
-0.175
-0.175
-0.175
-0.175
-0.175
-0.175
-0.175
-0.175
-0.175
-0.175
-0.175
-0.175
-0.175
-0.175
-0.175
-0.175
-0.175
-0.175
-0.175
-0.175
-0.175
-0.175
-0.175
-0.175
-0.175
-0.175
-0.175
-0.175
-0.175
-0.175
-0.175
-0.175
-0.175
-0.175
-0.175
-0.175
-0.175
-0.175
-0.175
-0.175
-0.175
-0.175
-0.175
-0.175
-0.175
-0.175
-0.175
-0.175
-0.175
-0.175
-0.175
-0.175
-0.175
-0.175
-0.175
-0.175
-0.175
-0.175
-0.175
-0.175
-0.175
-0.15
-0.125
-0.1
-0.075
-0.05
-0.025
0.0
0.025
0.05
0.075
0.125
0.15
0.175
0.2
0.225
0.25
0.275
0.3
0.325
0.35
0.375
0.425
0.45
0.475
0.5
0.525
0.55
0.575
0.6
0.625
0.65
0.7
0.65
0.625
0.6
0.575
0.55
0.525
0.5
0.475
0.45
0.425
0.375
0.35
0.325
0.3
0.275
0.25
0.225
0.2
0.175
0.15
0.125
0.075
0.05
0.025
0.0
-0.025
-0.05
-0.075
-0.1
-0.125
-0.15
-0.175
-0.2
-0.225
-0.25
-0.275
-0.25
-0.225
-0.2
-0.175
-0.175
-0.175
-0.175
-0.175
-0.175
-0.175
-0.175
-0.175
-0.175
-0.175
-0.175
-0.175
-0.175
-0.175
-0.175
-0.175
-0.175
-0.175
-0.175
-0.175
-0.175
-0.175
-0.175
-0.175
-0.175
-0.175
-0.175
-0.175
-0.175
-0.175
-0.175
-0.175
-0.175
-0.175
-0.175
-0.175
-0.175
-0.175
-0.175
-0.175
-0.175
-0.175
-0.175
-0.175
-0.175
-0.175
-0.175
-0.175
-0.175
-0.175
-0.175
-0.175
-0.175
-0.175
-0.175
-0.175
-0.175
-0.175
-0.175
-0.175
-0.175
-0.175
-0.175
-0.175
-0.175
-0.175
-0.175
-0.175
-0.175
-0.175
-0.175
-0.175
-0.175
-0.175
-0.175
-0.175
-0.175
-0.175
-0.175
-0.175
-0.175
-0.175
-0.175
-0.175
-0.175
-0.175
-0.175
-0.175
-0.175
-0.175
-0.175
-0.175
-0.175
-0.175
-0.175
-0.175
-0.175
-0.175
-0.175
-0.175
-0.175
-0.175
-0.175
-0.175
-0.175
-0.175
-0.175
-0.175
-0.175
-0.175
-0.175
-0.175
-0.175
-0.175
-0.175
-0.175
-0.175
-0.175
-0.175
-0.175
-0.175
-0.175
-0.175
-0.175
-0.175
-0.175
-0.175
-0.175
-0.175
-0.175
-0.175
-0.175
-0.175
-0.175
-0.175
-0.175
-0.175
-0.175
-0.175
-0.175
-0.175
-0.175
-0.175
-0.175
-0.175
-0.175
-0.175
-0.175
-0.175
-0.175
-0.175
-0.175
-0.175
-0.175
-0.175
-0.175
-0.175
-0.175
-0.175
-0.175
-0.175
-0.175
-0.175
-0.175
-0.175
-0.175
-0.175
-0.175
-0.175
-0.175
-0.175
-0.175
-0.175
-0.175
-0.175
-0.175
-0.175
-0.175
-0.175
-0.175
-0.175
-0.175
-0.175
-0.175
-0.175
-0.175
-0.175
-0.175
-0.175
-0.175
-0.175
-0.175
-0.175
-0.175
-0.175
-0.175
-0.175
-0.175
-0.175
-0.175
-0.175
-0.175
-0.175
-0.175
-0.175
-0.175
-0.175
-0.175
-0.175
-0.175
-0.175
-0.175
-0.175
-0.175
-0.175
-0.175
-0.175
-0.175
-0.175
-0.175
-0.175
-0.175
-0.175
-0.175
-0.175
-0.175
-0.175
-0.175
-0.175
-0.175
-0.175
-0.175
-0.175
-0.175
-0.175
-0.175
-0.175
-0.175
-0.175
-0.175
-0.175
-0.175
-0.175
-0.175
-0.175
-0.175
-0.175
-0.175
-0.175
-0.175
-0.175
-0.175
-0.175
-0.175
-0.175
-0.175
-0.175
-0.175
-0.175
-0.175
-0.175
-0.175
-0.175
-0.175
-0.175
-0.175
-0.175
-0.175
-0.175
-0.175
-0.175
-0.175
-0.175
-0.175
-0.175
-0.175
-0.175
-0.175
-0.175
-0.175
-0.175
-0.175
-0.175
-0.175
-0.175
-0.175
-0.175
-0.175
-0.175
-0.175
-0.175
-0.175
-0.175
-0.175
-0.175
-0.175
-0.175
-0.175
-0.175
-0.175
-0.175
-0.175
-0.175
-0.175
-0.175
-0.175
-0.175
-0.175
-0.175
-0.175
-0.175
-0.175
-0.175
-0.175
-0.175
-0.175
-0.175
-0.175
-0.175
-0.175
-0.175
-0.175
-0.175
-0.175
-0.175
-0.175
-0.175
-0.175
-0.175
-0.175
-0.175
-0.175
-0.175
-0.175
-0.175
-0.175
-0.175
-0.175
-0.175
-0.175
-0.175
-0.175
-0.175
-0.175
-0.175
-0.175
-0.175
-0.175
-0.175
-0.175
-0.175
-0.175
-0.175
-0.175
-0.175
-0.175
-0.175
-0.175
-0.175
-0.175
-0.175
-0.175
-0.175
-0.175
-0.175
-0.175
-0.175
-0.175
-0.175
-0.175
-0.175
-0.175
-0.175
-0.175
-0.175
-0.175
-0.175
-0.175
-0.175
-0.175
-0.175
-0.175
-0.175
-0.175
-0.175
-0.175
-0.175
-0.175
-0.175
-0.175
-0.175
-0.175
-0.175
-0.175
-0.175
-0.175
-0.175
-0.175
-0.175
-0.175
-0.175
-0.175
-0.175
-0.175
-0.175
-0.175
-0.175
-0.175
-0.175
-0.175
-0.175
-0.175
-0.175
-0.175
-0.175
-0.175
-0.175
-0.175
-0.175
-0.175
-0.175
-0.175
-0.175
-0.175
-0.175
-0.175
-0.175
-0.175
-0.175
-0.175
-0.175
-0.175
-0.175
-0.175
-0.175
-0.175
-0.175
-0.175
-0.175
-0.175
-0.175
-0.175
-0.175
-0.175
-0.175
-0.175
-0.175
-0.175
-0.175
-0.175
-0.175
-0.175
-0.175
-0.175
-0.175
-0.175
-0.175
-0.175
-0.175
-0.175
-0.175
-0.175
-0.175
-0.175
-0.175
-0.175
-0.175
-0.175
-0.15
-0.125
-0.1
-0.075
-0.05
-0.025
0.0
0.025
0.05
0.075
0.125
0.15
0.175
0.2
0.225
0.25
0.275
0.3
0.325
0.35
0.375
0.425
0.45
0.475
0.5
0.525
0.55
0.575
0.6
0.625
0.65
0.7
0.65
0.625
0.6
0.575
0.55
0.525
0.5
0.475
0.45
0.425
0.375
0.35
0.325
0.3
0.275
0.25
0.225
0.2
0.175
0.15
0.125
0.075
0.05
0.025
0.0
-0.025
-0.05
-0.075
-0.1
-0.125
-0.15
-0.175
-0.2
-0.225
-0.25
-0.275
-0.25
-0.225
-0.2
-0.175
-0.175
-0.175
-0.175
-0.175
-0.175
-0.175
-0.175
-0.175
-0.175
-0.175
-0.175
-0.175
-0.175
-0.175
-0.175
-0.175
-0.175
-0.175
-0.175
-0.175
-0.175
-0.175
-0.175
-0.175
-0.175
-0.175
-0.175
-0.175
-0.175
-0.175
-0.175
-0.175
-0.175
-0.175
-0.175
-0.175
-0.175
-0.175
-0.175
-0.175
-0.175
-0.175
-0.175
-0.175
-0.175
-0.175
-0.175
-0.175
-0.175
-0.175
-0.175
-0.175
-0.175
-0.175
-0.175
-0.175
-0.175
-0.175
-0.175
-0.175
-0.175
-0.175
-0.175
-0.175
-0.175
-0.175
-0.175
-0.175
-0.175
-0.175
-0.175
-0.175
-0.175
-0.175
-0.175
-0.175
-0.175
-0.175
-0.175
-0.175
-0.175
-0.175
-0.175
-0.175
-0.175
-0.175
-0.175
-0.175
-0.175
-0.175
-0.175
-0.175
-0.175
-0.175
-0.175
-0.175
-0.175
-0.175
-0.175
-0.175
-0.175
-0.175
-0.175
-0.175
-0.175
-0.175
-0.175
-0.175
-0.175
-0.175
-0.175
-0.175
-0.175
-0.175
-0.175
-0.175
-0.175
-0.175
-0.175
-0.175
-0.175
-0.175
-0.175
-0.175
-0.175
-0.175
-0.175
-0.175
-0.175
-0.175
-0.175
-0.175
-0.175
-0.175
-0.175
-0.175
-0.175
-0.175
-0.175
-0.175
-0.175
-0.175
-0.175
-0.175
-0.175
-0.175
-0.175
-0.175
-0.175
-0.175
-0.175
-0.175
-0.175
-0.175
-0.175
-0.175
-0.175
-0.175
-0.175
-0.175
-0.175
-0.175
-0.175
-0.175
-0.175
-0.175
-0.175
-0.175
-0.175
-0.175
-0.175
-0.175
-0.175
-0.175
-0.175
-0.175
-0.175
-0.175
-0.175
-0.175
-0.175
-0.175
-0.175
-0.175
-0.175
-0.175
-0.175
-0.175
-0.175
-0.175
-0.175
-0.175
-0.175
-0.175
-0.175
-0.175
-0.175
-0.175
-0.175
-0.175
-0.175
-0.175
-0.175
-0.175
-0.175
-0.175
-0.175
-0.175
-0.175
-0.175
-0.175
-0.175
-0.175
-0.175
-0.175
-0.175
-0.175
-0.175
-0.175
-0.175
-0.175
-0.175
-0.175
-0.175
-0.175
-0.175
-0.175
-0.175
-0.175
-0.175
-0.175
-0.175
-0.175
-0.175
-0.175
-0.175
-0.175
-0.175
-0.175
-0.175
-0.175
-0.175
-0.175
-0.175
-0.175
-0.175
-0.175
-0.175
-0.175
-0.175
-0.175
-0.175
-0.175
-0.175
-0.175
-0.175
-0.175
-0.175
-0.175
-0.175
-0.175
-0.175
-0.175
-0.175
-0.175
-0.175
-0.175
-0.175
-0.175
-0.175
-0.175
-0.175
-0.175
-0.175
-0.175
-0.175
-0.175
-0.175
-0.175
-0.175
-0.175
-0.175
-0.175
-0.175
-0.175
-0.175
-0.175
-0.175
-0.175
-0.175
-0.175
-0.175
-0.175
-0.175
-0.175
-0.175
-0.175
-0.175
-0.175
-0.175
-0.175
-0.175
-0.175
-0.175
-0.175
-0.175
-0.175
-0.175
-0.175
-0.175
-0.175
-0.175
-0.175
-0.175
-0.175
-0.175
-0.175
-0.175
-0.175
-0.175
-0.175
-0.175
-0.175
-0.175
-0.175
-0.175
-0.175
-0.175
-0.175
-0.175
-0.175
-0.175
-0.175
-0.175
-0.175
-0.175
-0.175
-0.175
-0.175
-0.175
-0.175
-0.175
-0.175
-0.175
-0.175
-0.175
-0.175
-0.175
-0.175
-0.175
-0.175
-0.175
-0.175
-0.175
-0.175
-0.175
-0.175
-0.175
-0.175
-0.175
-0.175
-0.175
-0.175
-0.175
-0.175
-0.175
-0.175
-0.175
-0.175
-0.175
-0.175
-0.175
-0.175
-0.175
-0.175
-0.175
-0.175
-0.175
-0.175
-0.175
-0.175
-0.175
-0.175
-0.175
-0.175
-0.175
-0.175
-0.175
-0.175
-0.175
-0.175
-0.175
-0.175
-0.175
-0.175
-0.175
-0.175
-0.175
-0.175
-0.175
-0.175
-0.175
-0.175
-0.175
-0.175
-0.175
-0.175
-0.175
-0.175
-0.175
-0.175
-0.175
-0.175
-0.175
-0.175
-0.175
-0.175
-0.175
-0.175
-0.175
-0.175
-0.175
-0.175
-0.175
-0.175
-0.175
-0.175
-0.175
-0.175
-0.175
-0.175
-0.175
-0.175
-0.175
-0.175
-0.175
-0.175
-0.175
-0.175
-0.175
-0.175
-0.175
-0.175
-0.175
-0.175
-0.175
-0.175
-0.175
-0.175
-0.175
-0.175
-0.175
-0.175
-0.175
-0.175
-0.175
-0.175
-0.175
-0.175
-0.175
-0.175
-0.175
-0.175
-0.175
-0.175
-0.175
-0.175
-0.175
-0.15
-0.125
-0.1
-0.075
-0.05
-0.025
0.0
0.025
0.05
0.075
0.125
0.15
0.175
0.2
0.225
0.25
0.275
0.3
0.325
0.35
0.375
0.425
0.45
0.475
0.5
0.525
0.55
0.575
0.6
0.625
0.65
0.7
0.65
0.625
0.6
0.575
0.55
0.525
0.5
0.475
0.45
0.425
0.375
0.35
0.325
0.3
0.275
0.25
0.225
0.2
0.175
0.15
0.125
0.075
0.05
0.025
0.0
-0.025
-0.05
-0.075
-0.1
-0.125
-0.15
-0.175
-0.2
-0.225
-0.25
-0.275
-0.25
-0.225
-0.2
-0.175
-0.175
-0.175
-0.175
-0.175
-0.175
-0.175
-0.175
-0.175
-0.175
-0.175
-0.175
-0.175
-0.175
-0.175
-0.175
-0.175
-0.175
-0.175
-0.175
-0.175
-0.175
-0.175
-0.175
-0.175
-0.175
-0.175
-0.175
-0.175
-0.175
-0.175
-0.175
-0.175
-0.175
-0.175
-0.175
-0.175
-0.175
-0.175
-0.175
-0.175
-0.175
-0.175
-0.175
-0.175
-0.175
-0.175
-0.175
-0.175
-0.175
-0.175
-0.175
-0.175
-0.175
-0.175
-0.175
-0.175
-0.175
-0.175
-0.175
-0.175
-0.175
-0.175
-0.175
-0.175
-0.175
-0.175
-0.175
-0.175
-0.175
-0.175
-0.175
-0.175
-0.175
-0.175
-0.175
-0.175
-0.175
-0.175
-0.175
-0.175
-0.175
-0.175
-0.175
-0.175
-0.175
-0.175
-0.175
-0.175
-0.175
-0.175
-0.175
-0.175
-0.175
-0.175
-0.175
-0.175
-0.175
-0.175
-0.175
-0.175
-0.175
-0.175
-0.175
-0.175
-0.175
-0.175
-0.175
-0.175
-0.175
-0.175
-0.175
-0.175
-0.175
-0.175
-0.175
-0.175
-0.175
-0.175
-0.175
-0.175
-0.175
-0.175
-0.175
-0.175
-0.175
-0.175
-0.175
-0.175
-0.175
-0.175
-0.175
-0.175
-0.175
-0.175
-0.175
-0.175
-0.175
-0.175
-0.175
-0.175
-0.175
-0.175
-0.175
-0.175
-0.175
-0.175
-0.175
-0.175
-0.175
-0.175
-0.175
-0.175
-0.175
-0.175
-0.175
-0.175
-0.175
-0.175
-0.175
-0.175
-0.175
-0.175
-0.175
-0.175
-0.175
-0.175
-0.175
-0.175
-0.175
-0.175
-0.175
-0.175
-0.175
-0.175
-0.175
-0.175
-0.175
-0.175
-0.175
-0.175
-0.175
-0.175
-0.175
-0.175
-0.175
-0.175
-0.175
-0.175
-0.175
-0.175
-0.175
-0.175
-0.175
-0.175
-0.175
-0.175
-0.175
-0.175
-0.175
-0.175
-0.175
-0.175
-0.175
-0.175
-0.175
-0.175
-0.175
-0.175
-0.175
-0.175
-0.175
-0.175
-0.175
-0.175
-0.175
-0.175
-0.175
-0.175
-0.175
-0.175
-0.175
-0.175
-0.175
-0.175
-0.175
-0.175
-0.175
-0.175
-0.175
-0.175
-0.175
-0.175
-0.175
-0.175
-0.175
-0.175
-0.175
-0.175
-0.175
-0.175
-0.175
-0.175
-0.175
-0.175
-0.175
-0.175
-0.175
-0.175
-0.175
-0.175
-0.175
-0.175
-0.175
-0.175
-0.175
-0.175
-0.175
-0.175
-0.175
-0.175
-0.175
-0.175
-0.175
-0.175
-0.175
-0.175
-0.175
-0.175
-0.175
-0.175
-0.175
-0.175
-0.175
-0.175
-0.175
-0.175
-0.175
-0.175
-0.175
-0.175
-0.175
-0.175
-0.175
-0.175
-0.175
-0.175
-0.175
-0.175
-0.175
-0.175
-0.175
-0.175
-0.175
-0.175
-0.175
-0.175
-0.175
-0.175
-0.175
-0.175
-0.175
-0.175
-0.175
-0.175
-0.175
-0.175
-0.175
-0.175
-0.175
-0.175
-0.175
-0.175
-0.175
-0.175
-0.175
-0.175
-0.175
-0.175
-0.175
-0.175
-0.175
-0.175
-0.175
-0.175
-0.175
-0.175
-0.175
-0.175
-0.175
-0.175
-0.175
-0.175
-0.175
-0.175
-0.175
-0.175
-0.175
-0.175
-0.175
-0.175
-0.175
-0.175
-0.175
-0.175
-0.175
-0.175
-0.175
-0.175
-0.175
-0.175
-0.175
-0.175
-0.175
-0.175
-0.175
-0.175
-0.175
-0.175
-0.175
-0.175
-0.175
-0.175
-0.175
-0.175
-0.175
-0.175
-0.175
-0.175
-0.175
-0.175
-0.175
-0.175
-0.175
-0.175
-0.175
-0.175
-0.175
-0.175
-0.175
-0.175
-0.175
-0.175
-0.175
-0.175
-0.175
-0.175
-0.175
-0.175
-0.175
-0.175
-0.175
-0.175
-0.175
-0.175
-0.175
-0.175
-0.175
-0.175
-0.175
-0.175
-0.175
-0.175
-0.175
-0.175
-0.175
-0.175
-0.175
-0.175
-0.175
-0.175
-0.175
-0.175
-0.175
-0.175
-0.175
-0.175
-0.175
-0.175
-0.175
-0.175
-0.175
-0.175
-0.175
-0.175
-0.175
-0.175
-0.175
-0.175
-0.175
-0.175
-0.175
-0.175
-0.175
-0.175
-0.175
-0.175
-0.175
-0.175
-0.175
-0.175
-0.175
-0.175
-0.175
-0.175
-0.175
-0.175
-0.175
-0.175
-0.175
-0.175
-0.175
-0.175
-0.175
-0.175
-0.175
-0.175
-0.175
-0.175
-0.175
-0.175
-0.175
-0.175
-0.175
-0.175
-0.175
-0.175
-0.175
-0.175
-0.15
-0.125
-0.1
-0.075
-0.05
-0.025
0.0
0.025
0.05
0.075
0.125
0.15
0.175
0.2
0.225
0.25
0.275
0.3
0.325
0.35
0.375
0.425
0.45
0.475
0.5
0.525
0.55
0.575
0.6
0.625
0.65
0.7
0.65
0.625
0.6
0.575
0.55
0.525
0.5
0.475
0.45
0.425
0.375
0.35
0.325
0.3
0.275
0.25
0.225
0.2
0.175
0.15
0.125
0.075
0.05
0.025
0.0
-0.025
-0.05
-0.075
-0.1
-0.125
-0.15
-0.175
-0.2
-0.225
-0.25
-0.275
-0.25
-0.225
-0.2
-0.175
-0.175
-0.175
-0.175
-0.175
-0.175
-0.175
-0.175
-0.175
-0.175
-0.175
-0.175
-0.175
-0.175
-0.175
-0.175
-0.175
-0.175
-0.175
-0.175
-0.175
-0.175
-0.175
-0.175
-0.175
-0.175
-0.175
-0.175
-0.175
-0.175
-0.175
-0.175
-0.175
-0.175
-0.175
-0.175
-0.175
-0.175
-0.175
-0.175
-0.175
-0.175
-0.175
-0.175
-0.175
-0.175
-0.175
-0.175
-0.175
-0.175
-0.175
-0.175
-0.175
-0.175
-0.175
-0.175
-0.175
-0.175
-0.175
-0.175
-0.175
-0.175
-0.175
-0.175
-0.175
-0.175
-0.175
-0.175
-0.175
-0.175
-0.175
-0.175
-0.175
-0.175
-0.175
-0.175
-0.175
-0.175
-0.175
-0.175
-0.175
-0.175
-0.175
-0.175
-0.175
-0.175
-0.175
-0.175
-0.175
-0.175
-0.175
-0.175
-0.175
-0.175
-0.175
-0.175
-0.175
-0.175
-0.175
-0.175
-0.175
-0.175
-0.175
-0.175
-0.175
-0.175
-0.175
-0.175
-0.175
-0.175
-0.175
-0.175
-0.175
-0.175
-0.175
-0.175
-0.175
-0.175
-0.175
-0.175
-0.175
-0.175
-0.175
-0.175
-0.175
-0.175
-0.175
-0.175
-0.175
-0.175
-0.175
-0.175
-0.175
-0.175
-0.175
-0.175
-0.175
-0.175
-0.175
-0.175
-0.175
-0.175
-0.175
-0.175
-0.175
-0.175
-0.175
-0.175
-0.175
-0.175
-0.175
-0.175
-0.175
-0.175
-0.175
-0.175
-0.175
-0.175
-0.175
-0.175
-0.175
-0.175
-0.175
-0.175
-0.175
-0.175
-0.175
-0.175
-0.175
-0.175
-0.175
-0.175
-0.175
-0.175
-0.175
-0.175
-0.175
-0.175
-0.175
-0.175
-0.175
-0.175
-0.175
-0.175
-0.175
-0.175
-0.175
-0.175
-0.175
-0.175
-0.175
-0.175
-0.175
-0.175
-0.175
-0.175
-0.175
-0.175
-0.175
-0.175
-0.175
-0.175
-0.175
-0.175
-0.175
-0.175
-0.175
-0.175
-0.175
-0.175
-0.175
-0.175
-0.175
-0.175
-0.175
-0.175
-0.175
-0.175
-0.175
-0.175
-0.175
-0.175
-0.175
-0.175
-0.175
-0.175
-0.175
-0.175
-0.175
-0.175
-0.175
-0.175
-0.175
-0.175
-0.175
-0.175
-0.175
-0.175
-0.175
-0.175
-0.175
-0.175
-0.175
-0.175
-0.175
-0.175
-0.175
-0.175
-0.175
-0.175
-0.175
-0.175
-0.175
-0.175
-0.175
-0.175
-0.175
-0.175
-0.175
-0.175
-0.175
-0.175
-0.175
-0.175
-0.175
-0.175
-0.175
